% f (Hz),G_rec (dB),T_e_rec (K)
  900000000,	55.55,	7.05
  901000000,	55.54,	7.02
  902000000,	55.52,	6.91
  903000000,	55.50,	6.96
  904000000,	55.49,	6.90
  905000000,	55.46,	7.00
  906000000,	55.44,	7.05
  907000000,	55.42,	6.95
  908000000,	55.40,	6.93
  909000000,	55.38,	6.96
  910000000,	55.37,	6.97
  911000000,	55.34,	7.10
  912000000,	55.33,	7.08
  913000000,	55.31,	6.97
  914000000,	55.29,	6.90
  915000000,	55.28,	6.89
  916000000,	55.27,	6.93
  917000000,	55.25,	6.99
  918000000,	55.24,	7.07
  919000000,	55.23,	6.81
  920000000,	55.21,	7.04
  921000000,	55.20,	6.95
  922000000,	55.19,	6.88
  923000000,	55.18,	7.07
  924000000,	55.17,	7.01
  925000000,	55.16,	6.94
  926000000,	55.15,	7.03
  927000000,	55.14,	6.85
  928000000,	55.13,	6.91
  929000000,	55.12,	7.04
  930000000,	55.11,	6.84
  931000000,	55.11,	6.95
  932000000,	55.10,	6.96
  933000000,	55.09,	6.91
  934000000,	55.09,	6.82
  935000000,	55.08,	7.00
  936000000,	55.07,	6.90
  937000000,	55.07,	7.07
  938000000,	55.06,	6.80
  939000000,	55.06,	6.94
  940000000,	55.05,	6.93
  941000000,	55.04,	6.84
  942000000,	55.04,	7.00
  943000000,	55.03,	6.90
  944000000,	55.02,	6.87
  945000000,	55.02,	6.86
  946000000,	55.01,	6.77
  947000000,	55.00,	6.96
  948000000,	55.00,	6.73
  949000000,	54.99,	6.84
  950000000,	54.99,	6.89
  951000000,	54.99,	6.77
  952000000,	54.99,	6.93
  953000000,	54.98,	6.85
  954000000,	54.97,	6.91
  955000000,	54.96,	6.84
  956000000,	54.95,	6.76
  957000000,	54.93,	6.89
  958000000,	54.92,	6.84
  959000000,	54.91,	6.91
  960000000,	54.90,	6.83
  961000000,	54.89,	6.87
  962000000,	54.88,	6.97
  963000000,	54.86,	6.83
  964000000,	54.85,	6.82
  965000000,	54.83,	6.87
  966000000,	54.82,	6.76
  967000000,	54.81,	6.98
  968000000,	54.79,	6.93
  969000000,	54.78,	6.85
  970000000,	54.77,	6.86
  971000000,	54.75,	6.84
  972000000,	54.73,	6.92
  973000000,	54.72,	6.91
  974000000,	54.71,	6.80
  975000000,	54.69,	6.89
  976000000,	54.68,	6.86
  977000000,	54.66,	6.89
  978000000,	54.65,	6.91
  979000000,	54.63,	6.97
  980000000,	54.62,	6.92
  981000000,	54.61,	6.89
  982000000,	54.60,	7.04
  983000000,	54.58,	6.99
  984000000,	54.57,	7.09
  985000000,	54.56,	6.97
  986000000,	54.55,	7.10
  987000000,	54.53,	7.03
  988000000,	54.52,	7.17
  989000000,	54.51,	7.06
  990000000,	54.50,	7.05
  991000000,	54.49,	7.11
  992000000,	54.48,	7.17
  993000000,	54.47,	7.10
  994000000,	54.46,	7.13
  995000000,	54.45,	7.28
  996000000,	54.45,	7.32
  997000000,	54.44,	7.30
  998000000,	54.43,	7.26
  999000000,	54.42,	7.25
 1000000000,	54.42,	7.24
 1001000000,	54.41,	7.41
 1002000000,	54.41,	7.31
 1003000000,	54.41,	7.51
 1004000000,	54.40,	7.34
 1005000000,	54.40,	7.37
 1006000000,	54.40,	7.58
 1007000000,	54.40,	7.41
 1008000000,	54.40,	7.42
 1009000000,	54.40,	7.50
 1010000000,	54.40,	7.65
 1011000000,	54.40,	7.59
 1012000000,	54.40,	7.50
 1013000000,	54.40,	7.49
 1014000000,	54.41,	7.65
 1015000000,	54.41,	7.72
 1016000000,	54.41,	7.60
 1017000000,	54.42,	7.57
 1018000000,	54.42,	7.58
 1019000000,	54.43,	7.73
 1020000000,	54.43,	7.53
 1021000000,	54.43,	7.78
 1022000000,	54.44,	7.65
 1023000000,	54.44,	7.68
 1024000000,	54.45,	7.90
 1025000000,	54.45,	7.67
 1026000000,	54.45,	7.81
 1027000000,	54.46,	7.79
 1028000000,	54.47,	7.82
 1029000000,	54.47,	7.81
 1030000000,	54.48,	7.91
 1031000000,	54.49,	7.89
 1032000000,	54.49,	7.99
 1033000000,	54.50,	7.93
 1034000000,	54.50,	7.90
 1035000000,	54.51,	7.76
 1036000000,	54.52,	8.00
 1037000000,	54.52,	7.94
 1038000000,	54.53,	7.89
 1039000000,	54.54,	7.99
 1040000000,	54.55,	7.87
 1041000000,	54.55,	8.03
 1042000000,	54.56,	7.92
 1043000000,	54.57,	8.01
 1044000000,	54.57,	7.94
 1045000000,	54.58,	7.87
 1046000000,	54.59,	7.85
 1047000000,	54.59,	8.02
 1048000000,	54.60,	7.96
 1049000000,	54.60,	8.05
 1050000000,	54.61,	7.99
 1051000000,	54.61,	8.14
 1052000000,	54.62,	7.82
 1053000000,	54.62,	7.91
 1054000000,	54.63,	8.05
 1055000000,	54.63,	7.95
 1056000000,	54.63,	7.98
 1057000000,	54.63,	7.95
 1058000000,	54.63,	7.78
 1059000000,	54.63,	8.09
 1060000000,	54.63,	7.99
 1061000000,	54.63,	7.98
 1062000000,	54.63,	8.06
 1063000000,	54.62,	8.04
 1064000000,	54.62,	7.90
 1065000000,	54.62,	7.97
 1066000000,	54.62,	7.98
 1067000000,	54.61,	8.06
 1068000000,	54.61,	8.07
 1069000000,	54.61,	7.84
 1070000000,	54.60,	7.87
 1071000000,	54.60,	7.93
 1072000000,	54.59,	7.86
 1073000000,	54.59,	7.96
 1074000000,	54.59,	7.94
 1075000000,	54.58,	7.95
 1076000000,	54.58,	7.84
 1077000000,	54.57,	8.03
 1078000000,	54.57,	8.04
 1079000000,	54.56,	7.89
 1080000000,	54.56,	7.94
 1081000000,	54.55,	8.06
 1082000000,	54.55,	7.91
 1083000000,	54.54,	7.94
 1084000000,	54.54,	7.93
 1085000000,	54.53,	8.05
 1086000000,	54.53,	7.90
 1087000000,	54.52,	8.20
 1088000000,	54.52,	8.10
 1089000000,	54.51,	7.96
 1090000000,	54.51,	8.07
 1091000000,	54.50,	8.08
 1092000000,	54.49,	7.99
 1093000000,	54.49,	8.06
 1094000000,	54.49,	7.95
 1095000000,	54.48,	8.09
 1096000000,	54.48,	7.99
 1097000000,	54.47,	8.06
 1098000000,	54.47,	8.02
 1099000000,	54.47,	8.18
 1100000000,	54.46,	8.08
 1101000000,	54.46,	8.18
 1102000000,	54.46,	8.27
 1103000000,	54.46,	8.09
 1104000000,	54.45,	8.18
 1105000000,	54.45,	8.10
 1106000000,	54.45,	8.15
 1107000000,	54.45,	8.13
 1108000000,	54.45,	7.87
 1109000000,	54.45,	8.12
 1110000000,	54.45,	8.28
 1111000000,	54.44,	8.21
 1112000000,	54.45,	8.18
 1113000000,	54.45,	8.22
 1114000000,	54.45,	8.19
 1115000000,	54.45,	8.25
 1116000000,	54.46,	8.17
 1117000000,	54.46,	8.14
 1118000000,	54.46,	8.24
 1119000000,	54.46,	8.18
 1120000000,	54.47,	8.37
 1121000000,	54.47,	8.10
 1122000000,	54.48,	8.06
 1123000000,	54.48,	8.28
 1124000000,	54.49,	8.30
 1125000000,	54.49,	8.10
 1126000000,	54.49,	8.19
 1127000000,	54.50,	8.15
 1128000000,	54.50,	8.19
 1129000000,	54.52,	8.37
 1130000000,	54.52,	8.23
 1131000000,	54.53,	8.14
 1132000000,	54.53,	8.33
 1133000000,	54.54,	8.17
 1134000000,	54.55,	8.08
 1135000000,	54.56,	8.17
 1136000000,	54.57,	8.27
 1137000000,	54.57,	8.07
 1138000000,	54.58,	8.23
 1139000000,	54.59,	8.20
 1140000000,	54.59,	8.22
 1141000000,	54.60,	8.20
 1142000000,	54.61,	8.17
 1143000000,	54.61,	8.17
 1144000000,	54.62,	8.29
 1145000000,	54.62,	8.14
 1146000000,	54.64,	8.19
 1147000000,	54.64,	8.28
 1148000000,	54.65,	8.23
 1149000000,	54.66,	8.27
 1150000000,	54.66,	8.31
 1151000000,	54.67,	7.98
 1152000000,	54.68,	8.14
 1153000000,	54.68,	8.21
 1154000000,	54.69,	8.13
 1155000000,	54.70,	8.08
 1156000000,	54.70,	8.24
 1157000000,	54.71,	8.17
 1158000000,	54.71,	8.19
 1159000000,	54.71,	8.30
 1160000000,	54.71,	8.06
 1161000000,	54.72,	8.09
 1162000000,	54.72,	8.17
 1163000000,	54.73,	8.02
 1164000000,	54.73,	8.07
 1165000000,	54.73,	8.03
 1166000000,	54.73,	8.05
 1167000000,	54.73,	8.03
 1168000000,	54.73,	7.90
 1169000000,	54.73,	8.16
 1170000000,	54.74,	8.19
 1171000000,	54.74,	8.15
 1172000000,	54.74,	8.01
 1173000000,	54.74,	8.09
 1174000000,	54.74,	7.93
 1175000000,	54.74,	7.96
 1176000000,	54.73,	8.06
 1177000000,	54.73,	8.01
 1178000000,	54.73,	8.09
 1179000000,	54.73,	8.15
 1180000000,	54.72,	8.10
 1181000000,	54.72,	8.11
 1182000000,	54.72,	8.20
 1183000000,	54.71,	8.14
 1184000000,	54.71,	8.16
 1185000000,	54.71,	8.18
 1186000000,	54.71,	8.08
 1187000000,	54.70,	7.96
 1188000000,	54.70,	8.18
 1189000000,	54.70,	8.12
 1190000000,	54.70,	8.08
 1191000000,	54.69,	8.11
 1192000000,	54.69,	8.12
 1193000000,	54.68,	8.26
 1194000000,	54.68,	8.05
 1195000000,	54.67,	8.15
 1196000000,	54.67,	8.23
 1197000000,	54.66,	8.14
 1198000000,	54.66,	8.22
 1199000000,	54.65,	8.14
 1200000000,	54.65,	8.19
 1201000000,	54.64,	8.26
 1202000000,	54.64,	8.30
 1203000000,	54.63,	8.08
 1204000000,	54.63,	8.31
 1205000000,	54.62,	8.42
 1206000000,	54.62,	8.18
 1207000000,	54.62,	8.32
 1208000000,	54.61,	8.26
 1209000000,	54.61,	8.41
 1210000000,	54.61,	8.38
 1211000000,	54.61,	8.43
 1212000000,	54.61,	8.34
 1213000000,	54.61,	8.32
 1214000000,	54.60,	8.25
 1215000000,	54.61,	8.47
 1216000000,	54.61,	8.32
 1217000000,	54.61,	8.41
 1218000000,	54.61,	8.44
 1219000000,	54.61,	8.40
 1220000000,	54.61,	8.37
 1221000000,	54.61,	8.53
 1222000000,	54.61,	8.51
 1223000000,	54.62,	8.46
 1224000000,	54.62,	8.51
 1225000000,	54.62,	8.59
 1226000000,	54.63,	8.52
 1227000000,	54.63,	8.44
 1228000000,	54.63,	8.48
 1229000000,	54.63,	8.51
 1230000000,	54.64,	8.65
 1231000000,	54.65,	8.42
 1232000000,	54.65,	8.47
 1233000000,	54.66,	8.61
 1234000000,	54.67,	8.44
 1235000000,	54.67,	8.39
 1236000000,	54.69,	8.55
 1237000000,	54.70,	8.53
 1238000000,	54.70,	8.57
 1239000000,	54.71,	8.47
 1240000000,	54.72,	8.51
 1241000000,	54.73,	8.52
 1242000000,	54.74,	8.51
 1243000000,	54.75,	8.48
 1244000000,	54.76,	8.53
 1245000000,	54.77,	8.31
 1246000000,	54.78,	8.41
 1247000000,	54.80,	8.52
 1248000000,	54.81,	8.51
 1249000000,	54.81,	8.46
 1250000000,	54.82,	8.51
 1251000000,	54.83,	8.47
 1252000000,	54.84,	8.61
 1253000000,	54.85,	8.38
 1254000000,	54.86,	8.47
 1255000000,	54.87,	8.34
 1256000000,	54.88,	8.28
 1257000000,	54.89,	8.36
 1258000000,	54.90,	8.30
 1259000000,	54.91,	8.28
 1260000000,	54.92,	8.28
 1261000000,	54.93,	8.41
 1262000000,	54.94,	8.33
 1263000000,	54.95,	8.35
 1264000000,	54.96,	8.34
 1265000000,	54.97,	8.36
 1266000000,	54.98,	8.28
 1267000000,	54.99,	8.35
 1268000000,	55.00,	8.30
 1269000000,	55.01,	8.27
 1270000000,	55.02,	8.37
 1271000000,	55.03,	8.32
 1272000000,	55.04,	8.26
 1273000000,	55.05,	8.14
 1274000000,	55.06,	8.11
 1275000000,	55.07,	8.15
 1276000000,	55.08,	8.25
 1277000000,	55.09,	7.99
 1278000000,	55.09,	8.02
 1279000000,	55.10,	8.22
 1280000000,	55.11,	8.02
 1281000000,	55.12,	8.05
 1282000000,	55.14,	8.14
 1283000000,	55.14,	7.97
 1284000000,	55.15,	7.99
 1285000000,	55.16,	8.09
 1286000000,	55.17,	7.99
 1287000000,	55.18,	8.00
 1288000000,	55.19,	7.96
 1289000000,	55.19,	7.98
 1290000000,	55.20,	7.90
 1291000000,	55.20,	7.84
 1292000000,	55.21,	7.88
 1293000000,	55.21,	7.82
 1294000000,	55.21,	7.80
 1295000000,	55.22,	7.77
 1296000000,	55.22,	7.90
 1297000000,	55.23,	7.84
 1298000000,	55.23,	7.68
 1299000000,	55.23,	7.67
 1300000000,	55.24,	7.82
 1301000000,	55.24,	7.84
 1302000000,	55.24,	7.80
 1303000000,	55.24,	7.73
 1304000000,	55.24,	7.79
 1305000000,	55.25,	7.77
 1306000000,	55.24,	7.70
 1307000000,	55.24,	7.66
 1308000000,	55.24,	7.55
 1309000000,	55.23,	7.68
 1310000000,	55.23,	7.61
 1311000000,	55.23,	7.63
 1312000000,	55.22,	7.69
 1313000000,	55.22,	7.60
 1314000000,	55.21,	7.58
 1315000000,	55.21,	7.53
 1316000000,	55.21,	7.65
 1317000000,	55.20,	7.39
 1318000000,	55.20,	7.63
 1319000000,	55.19,	7.59
 1320000000,	55.18,	7.44
 1321000000,	55.18,	7.62
 1322000000,	55.17,	7.67
 1323000000,	55.17,	7.60
 1324000000,	55.16,	7.54
 1325000000,	55.15,	7.63
 1326000000,	55.15,	7.49
 1327000000,	55.14,	7.50
 1328000000,	55.13,	7.72
 1329000000,	55.12,	7.50
 1330000000,	55.11,	7.54
 1331000000,	55.10,	7.60
 1332000000,	55.09,	7.47
 1333000000,	55.09,	7.38
 1334000000,	55.07,	7.60
 1335000000,	55.07,	7.70
 1336000000,	55.06,	7.47
 1337000000,	55.05,	7.55
 1338000000,	55.04,	7.59
 1339000000,	55.03,	7.51
 1340000000,	55.03,	7.62
 1341000000,	55.02,	7.51
 1342000000,	55.01,	7.72
 1343000000,	55.01,	7.56
 1344000000,	55.00,	7.59
 1345000000,	54.99,	7.70
 1346000000,	54.98,	7.62
 1347000000,	54.98,	7.65
 1348000000,	54.97,	7.61
 1349000000,	54.96,	7.70
 1350000000,	54.96,	7.76
 1351000000,	54.95,	7.77
 1352000000,	54.94,	7.61
 1353000000,	54.93,	7.67
 1354000000,	54.93,	7.73
 1355000000,	54.92,	7.72
 1356000000,	54.91,	7.83
 1357000000,	54.91,	7.71
 1358000000,	54.91,	7.76
 1359000000,	54.90,	7.77
 1360000000,	54.90,	7.86
 1361000000,	54.90,	7.78
 1362000000,	54.89,	7.84
 1363000000,	54.89,	7.86
 1364000000,	54.89,	7.94
 1365000000,	54.88,	7.79
 1366000000,	54.88,	7.90
 1367000000,	54.88,	7.74
 1368000000,	54.87,	8.00
 1369000000,	54.87,	8.03
 1370000000,	54.87,	8.09
 1371000000,	54.87,	8.01
 1372000000,	54.87,	7.92
 1373000000,	54.87,	7.98
 1374000000,	54.87,	8.12
 1375000000,	54.87,	7.92
 1376000000,	54.87,	7.88
 1377000000,	54.87,	7.97
 1378000000,	54.88,	8.13
 1379000000,	54.88,	8.21
 1380000000,	54.88,	7.94
 1381000000,	54.88,	8.18
 1382000000,	54.88,	8.08
 1383000000,	54.88,	8.24
 1384000000,	54.89,	8.14
 1385000000,	54.89,	8.17
 1386000000,	54.89,	8.14
 1387000000,	54.89,	8.01
 1388000000,	54.89,	8.07
 1389000000,	54.90,	8.09
 1390000000,	54.90,	8.13
 1391000000,	54.90,	8.15
 1392000000,	54.90,	8.11
 1393000000,	54.91,	8.17
 1394000000,	54.91,	8.16
 1395000000,	54.92,	8.04
 1396000000,	54.92,	8.13
 1397000000,	54.92,	7.99
 1398000000,	54.93,	8.07
 1399000000,	54.93,	7.99
 1400000000,	54.93,	7.96
 1401000000,	54.94,	8.10
 1402000000,	54.94,	8.07
 1403000000,	54.94,	8.02
 1404000000,	54.95,	7.87
 1405000000,	54.95,	8.06
 1406000000,	54.96,	7.83
 1407000000,	54.96,	7.95
 1408000000,	54.96,	7.84
 1409000000,	54.96,	7.92
 1410000000,	54.97,	7.81
 1411000000,	54.97,	7.77
 1412000000,	54.97,	7.86
 1413000000,	54.97,	7.80
 1414000000,	54.97,	7.96
 1415000000,	54.97,	7.94
 1416000000,	54.97,	7.82
 1417000000,	54.97,	7.80
 1418000000,	54.97,	8.22
 1419000000,	54.98,	8.15
 1420000000,	54.98,	7.97
 1421000000,	54.98,	8.07
 1422000000,	54.99,	7.93
 1423000000,	54.99,	7.90
 1424000000,	55.00,	8.02
 1425000000,	55.01,	8.08
 1426000000,	55.02,	8.05
 1427000000,	55.03,	8.08
 1428000000,	55.03,	8.08
 1429000000,	55.04,	7.96
 1430000000,	55.04,	8.13
 1431000000,	55.05,	7.93
 1432000000,	55.06,	8.06
 1433000000,	55.06,	7.86
 1434000000,	55.06,	8.01
 1435000000,	55.06,	8.07
 1436000000,	55.06,	8.20
 1437000000,	55.06,	8.21
 1438000000,	55.05,	8.25
 1439000000,	55.05,	8.23
 1440000000,	55.05,	8.12
 1441000000,	55.05,	8.27
 1442000000,	55.04,	8.31
 1443000000,	55.04,	8.45
 1444000000,	55.04,	8.35
 1445000000,	55.03,	8.56
 1446000000,	55.03,	8.46
 1447000000,	55.03,	8.52
 1448000000,	55.03,	8.65
 1449000000,	55.03,	8.52
 1450000000,	55.02,	8.53
 1451000000,	55.02,	8.30
 1452000000,	55.02,	8.42
 1453000000,	55.02,	8.32
 1454000000,	55.02,	8.20
 1455000000,	55.02,	8.18
 1456000000,	55.02,	8.21
 1457000000,	55.02,	8.06
 1458000000,	55.01,	7.96
 1459000000,	55.01,	8.01
 1460000000,	55.01,	7.99
 1461000000,	55.00,	7.81
 1462000000,	54.99,	7.90
 1463000000,	54.99,	7.79
 1464000000,	54.98,	7.81
 1465000000,	54.98,	7.81
 1466000000,	54.97,	7.73
 1467000000,	54.96,	7.73
 1468000000,	54.95,	7.72
 1469000000,	54.95,	7.78
 1470000000,	54.94,	7.68
 1471000000,	54.93,	7.70
 1472000000,	54.92,	7.80
 1473000000,	54.92,	7.81
 1474000000,	54.90,	7.95
 1475000000,	54.89,	7.77
 1476000000,	54.88,	7.74
 1477000000,	54.88,	7.85
 1478000000,	54.86,	8.04
 1479000000,	54.86,	7.86
 1480000000,	54.84,	7.92
 1481000000,	54.83,	8.06
 1482000000,	54.82,	8.01
 1483000000,	54.81,	8.02
 1484000000,	54.80,	8.00
 1485000000,	54.79,	8.11
 1486000000,	54.78,	8.17
 1487000000,	54.76,	8.07
 1488000000,	54.75,	7.97
 1489000000,	54.74,	8.15
 1490000000,	54.73,	8.21
 1491000000,	54.72,	8.25
 1492000000,	54.71,	8.31
 1493000000,	54.70,	8.17
 1494000000,	54.70,	8.19
 1495000000,	54.69,	8.21
 1496000000,	54.69,	8.06
 1497000000,	54.68,	8.15
 1498000000,	54.68,	8.33
 1499000000,	54.67,	8.27
 1500000000,	54.66,	8.16
 1501000000,	54.66,	8.29
 1502000000,	54.65,	8.11
 1503000000,	54.65,	8.20
 1504000000,	54.64,	8.23
 1505000000,	54.64,	8.25
 1506000000,	54.63,	8.24
 1507000000,	54.62,	8.29
 1508000000,	54.62,	8.21
 1509000000,	54.61,	8.30
 1510000000,	54.61,	8.21
 1511000000,	54.60,	8.37
 1512000000,	54.60,	8.32
 1513000000,	54.59,	8.23
 1514000000,	54.59,	8.35
 1515000000,	54.58,	8.42
 1516000000,	54.58,	8.43
 1517000000,	54.57,	8.39
 1518000000,	54.57,	8.28
 1519000000,	54.56,	8.23
 1520000000,	54.56,	8.45
 1521000000,	54.55,	8.37
 1522000000,	54.55,	8.44
 1523000000,	54.55,	8.26
 1524000000,	54.55,	8.43
 1525000000,	54.54,	8.32
 1526000000,	54.54,	8.37
 1527000000,	54.54,	8.31
 1528000000,	54.54,	8.37
 1529000000,	54.54,	8.23
 1530000000,	54.54,	8.23
 1531000000,	54.53,	8.30
 1532000000,	54.53,	8.25
 1533000000,	54.53,	8.32
 1534000000,	54.53,	8.32
 1535000000,	54.53,	8.25
 1536000000,	54.53,	8.28
 1537000000,	54.53,	8.26
 1538000000,	54.53,	8.25
 1539000000,	54.52,	8.20
 1540000000,	54.52,	8.22
 1541000000,	54.52,	8.10
 1542000000,	54.52,	8.11
 1543000000,	54.53,	8.20
 1544000000,	54.52,	8.16
 1545000000,	54.52,	8.06
 1546000000,	54.53,	8.13
 1547000000,	54.53,	8.08
 1548000000,	54.53,	8.14
 1549000000,	54.53,	8.10
 1550000000,	54.53,	7.94
 1551000000,	54.53,	8.04
 1552000000,	54.54,	7.96
 1553000000,	54.54,	8.02
 1554000000,	54.54,	7.74
 1555000000,	54.55,	7.88
 1556000000,	54.55,	7.96
 1557000000,	54.55,	7.89
 1558000000,	54.55,	7.96
 1559000000,	54.56,	7.99
 1560000000,	54.56,	7.94
 1561000000,	54.56,	7.97
 1562000000,	54.57,	7.88
 1563000000,	54.57,	7.88
 1564000000,	54.57,	7.90
 1565000000,	54.58,	7.64
 1566000000,	54.58,	7.92
 1567000000,	54.58,	7.82
 1568000000,	54.58,	7.86
 1569000000,	54.58,	7.84
 1570000000,	54.58,	7.74
 1571000000,	54.58,	7.94
 1572000000,	54.58,	7.64
 1573000000,	54.58,	7.84
 1574000000,	54.58,	7.61
 1575000000,	54.57,	7.86
 1576000000,	54.57,	7.72
 1577000000,	54.57,	7.82
 1578000000,	54.56,	7.83
 1579000000,	54.56,	7.87
 1580000000,	54.55,	7.83
 1581000000,	54.55,	7.69
 1582000000,	54.54,	7.77
 1583000000,	54.53,	7.80
 1584000000,	54.53,	7.85
 1585000000,	54.52,	7.99
 1586000000,	54.51,	7.85
 1587000000,	54.50,	7.83
 1588000000,	54.49,	7.91
 1589000000,	54.49,	7.86
 1590000000,	54.47,	7.81
 1591000000,	54.47,	7.94
 1592000000,	54.46,	7.78
 1593000000,	54.45,	8.00
 1594000000,	54.44,	7.98
 1595000000,	54.43,	8.00
 1596000000,	54.42,	7.91
 1597000000,	54.41,	8.03
 1598000000,	54.40,	7.96
 1599000000,	54.38,	7.86
 1600000000,	54.37,	7.93
 1601000000,	54.36,	8.24
 1602000000,	54.35,	8.18
 1603000000,	54.33,	8.21
 1604000000,	54.31,	8.02
 1605000000,	54.30,	8.36
 1606000000,	54.28,	8.21
 1607000000,	54.27,	8.19
 1608000000,	54.25,	8.18
 1609000000,	54.23,	8.17
 1610000000,	54.21,	8.27
 1611000000,	54.19,	8.14
 1612000000,	54.17,	8.30
 1613000000,	54.15,	8.39
 1614000000,	54.13,	8.49
 1615000000,	54.11,	8.43
 1616000000,	54.08,	8.42
 1617000000,	54.06,	8.64
 1618000000,	54.04,	8.28
 1619000000,	54.02,	8.42
 1620000000,	54.00,	8.60
 1621000000,	53.98,	8.47
 1622000000,	53.96,	8.53
 1623000000,	53.94,	8.50
 1624000000,	53.92,	8.54
 1625000000,	53.91,	8.63
 1626000000,	53.89,	8.72
 1627000000,	53.87,	8.61
 1628000000,	53.85,	8.68
 1629000000,	53.84,	8.75
 1630000000,	53.82,	8.71
 1631000000,	53.81,	8.67
 1632000000,	53.79,	8.89
 1633000000,	53.78,	9.02
 1634000000,	53.76,	8.97
 1635000000,	53.74,	8.93
 1636000000,	53.72,	8.91
 1637000000,	53.71,	8.75
 1638000000,	53.69,	9.03
 1639000000,	53.68,	9.04
 1640000000,	53.66,	8.95
 1641000000,	53.65,	8.86
 1642000000,	53.63,	8.87
 1643000000,	53.62,	8.81
 1644000000,	53.61,	8.99
 1645000000,	53.59,	8.96
 1646000000,	53.58,	9.06
 1647000000,	53.57,	8.87
 1648000000,	53.55,	8.93
 1649000000,	53.54,	8.93
 1650000000,	53.52,	8.99
 1651000000,	53.51,	9.16
 1652000000,	53.50,	9.14
 1653000000,	53.49,	8.98
 1654000000,	53.47,	9.16
 1655000000,	53.47,	9.31
 1656000000,	53.46,	9.09
 1657000000,	53.45,	9.06
 1658000000,	53.44,	9.03
 1659000000,	53.43,	9.22
 1660000000,	53.43,	9.14
 1661000000,	53.42,	9.12
 1662000000,	53.41,	9.22
 1663000000,	53.41,	9.27
 1664000000,	53.40,	9.34
 1665000000,	53.40,	9.35
 1666000000,	53.40,	9.34
 1667000000,	53.40,	9.21
 1668000000,	53.39,	9.38
 1669000000,	53.39,	9.46
 1670000000,	53.39,	9.45
