% f (Hz),G_rec (dB),T_e_rec (K)
  900000000,	54.88,	6.90
  901000000,	54.87,	6.89
  902000000,	54.86,	6.84
  903000000,	54.85,	6.92
  904000000,	54.83,	6.88
  905000000,	54.82,	6.82
  906000000,	54.81,	6.84
  907000000,	54.79,	6.81
  908000000,	54.77,	6.77
  909000000,	54.76,	6.84
  910000000,	54.74,	6.74
  911000000,	54.72,	6.79
  912000000,	54.71,	6.81
  913000000,	54.70,	6.88
  914000000,	54.69,	6.97
  915000000,	54.68,	6.96
  916000000,	54.67,	6.90
  917000000,	54.66,	6.85
  918000000,	54.64,	6.84
  919000000,	54.63,	6.90
  920000000,	54.62,	6.79
  921000000,	54.61,	6.80
  922000000,	54.60,	6.89
  923000000,	54.59,	6.81
  924000000,	54.57,	6.78
  925000000,	54.56,	6.81
  926000000,	54.55,	6.88
  927000000,	54.54,	6.85
  928000000,	54.54,	6.83
  929000000,	54.53,	6.71
  930000000,	54.51,	6.80
  931000000,	54.50,	6.87
  932000000,	54.49,	6.88
  933000000,	54.48,	6.85
  934000000,	54.47,	6.72
  935000000,	54.46,	6.81
  936000000,	54.46,	6.79
  937000000,	54.44,	6.88
  938000000,	54.43,	6.77
  939000000,	54.42,	6.87
  940000000,	54.41,	6.82
  941000000,	54.40,	7.00
  942000000,	54.39,	6.83
  943000000,	54.38,	6.69
  944000000,	54.37,	6.80
  945000000,	54.36,	6.75
  946000000,	54.34,	6.84
  947000000,	54.33,	6.97
  948000000,	54.32,	6.90
  949000000,	54.30,	6.91
  950000000,	54.29,	7.01
  951000000,	54.28,	6.91
  952000000,	54.27,	6.89
  953000000,	54.25,	6.79
  954000000,	54.24,	6.94
  955000000,	54.23,	6.98
  956000000,	54.21,	6.85
  957000000,	54.19,	6.79
  958000000,	54.18,	6.87
  959000000,	54.17,	6.95
  960000000,	54.15,	6.86
  961000000,	54.14,	6.96
  962000000,	54.12,	6.85
  963000000,	54.11,	6.98
  964000000,	54.10,	6.85
  965000000,	54.09,	6.74
  966000000,	54.07,	6.79
  967000000,	54.06,	6.98
  968000000,	54.05,	6.84
  969000000,	54.04,	6.84
  970000000,	54.02,	6.88
  971000000,	54.02,	6.94
  972000000,	54.00,	7.00
  973000000,	53.99,	6.97
  974000000,	53.98,	6.76
  975000000,	53.97,	6.92
  976000000,	53.96,	6.90
  977000000,	53.96,	6.95
  978000000,	53.95,	6.99
  979000000,	53.94,	6.94
  980000000,	53.93,	7.04
  981000000,	53.93,	6.91
  982000000,	53.92,	6.91
  983000000,	53.91,	6.92
  984000000,	53.91,	7.11
  985000000,	53.91,	6.95
  986000000,	53.90,	7.09
  987000000,	53.89,	6.93
  988000000,	53.90,	6.99
  989000000,	53.89,	7.01
  990000000,	53.89,	7.04
  991000000,	53.89,	6.92
  992000000,	53.89,	7.13
  993000000,	53.89,	7.10
  994000000,	53.89,	7.19
  995000000,	53.90,	7.12
  996000000,	53.90,	7.36
  997000000,	53.90,	7.10
  998000000,	53.90,	7.11
  999000000,	53.91,	7.14
 1000000000,	53.92,	7.20
 1001000000,	53.92,	7.18
 1002000000,	53.93,	7.20
 1003000000,	53.93,	7.22
 1004000000,	53.93,	7.23
 1005000000,	53.95,	7.12
 1006000000,	53.96,	7.17
 1007000000,	53.96,	7.20
 1008000000,	53.97,	7.30
 1009000000,	53.98,	7.35
 1010000000,	53.99,	7.37
 1011000000,	54.00,	7.25
 1012000000,	54.01,	7.42
 1013000000,	54.01,	7.34
 1014000000,	54.03,	7.51
 1015000000,	54.04,	7.38
 1016000000,	54.05,	7.41
 1017000000,	54.06,	7.31
 1018000000,	54.08,	7.54
 1019000000,	54.09,	7.41
 1020000000,	54.09,	7.52
 1021000000,	54.10,	7.49
 1022000000,	54.11,	7.70
 1023000000,	54.13,	7.43
 1024000000,	54.14,	7.62
 1025000000,	54.15,	7.51
 1026000000,	54.16,	7.48
 1027000000,	54.18,	7.62
 1028000000,	54.19,	7.41
 1029000000,	54.20,	7.63
 1030000000,	54.21,	7.61
 1031000000,	54.22,	7.70
 1032000000,	54.22,	7.54
 1033000000,	54.23,	7.59
 1034000000,	54.24,	7.64
 1035000000,	54.25,	7.52
 1036000000,	54.26,	7.62
 1037000000,	54.26,	7.73
 1038000000,	54.27,	7.69
 1039000000,	54.28,	7.68
 1040000000,	54.28,	7.65
 1041000000,	54.29,	7.67
 1042000000,	54.29,	7.59
 1043000000,	54.30,	7.81
 1044000000,	54.30,	7.79
 1045000000,	54.31,	7.77
 1046000000,	54.31,	7.72
 1047000000,	54.31,	7.86
 1048000000,	54.32,	7.78
 1049000000,	54.32,	7.71
 1050000000,	54.32,	7.87
 1051000000,	54.32,	7.70
 1052000000,	54.32,	7.89
 1053000000,	54.32,	7.82
 1054000000,	54.32,	7.87
 1055000000,	54.33,	7.89
 1056000000,	54.32,	7.73
 1057000000,	54.32,	7.99
 1058000000,	54.32,	7.79
 1059000000,	54.32,	7.79
 1060000000,	54.32,	7.89
 1061000000,	54.32,	8.07
 1062000000,	54.31,	7.96
 1063000000,	54.31,	7.61
 1064000000,	54.30,	7.82
 1065000000,	54.30,	7.82
 1066000000,	54.30,	7.85
 1067000000,	54.29,	7.83
 1068000000,	54.29,	7.80
 1069000000,	54.29,	7.94
 1070000000,	54.28,	7.97
 1071000000,	54.28,	7.97
 1072000000,	54.27,	7.84
 1073000000,	54.27,	8.03
 1074000000,	54.27,	7.82
 1075000000,	54.27,	7.91
 1076000000,	54.27,	7.91
 1077000000,	54.26,	7.98
 1078000000,	54.26,	7.97
 1079000000,	54.26,	7.90
 1080000000,	54.26,	7.93
 1081000000,	54.26,	7.98
 1082000000,	54.25,	8.03
 1083000000,	54.25,	7.94
 1084000000,	54.25,	8.05
 1085000000,	54.25,	7.95
 1086000000,	54.24,	7.90
 1087000000,	54.25,	7.83
 1088000000,	54.24,	7.99
 1089000000,	54.24,	7.85
 1090000000,	54.24,	8.06
 1091000000,	54.25,	7.91
 1092000000,	54.24,	7.95
 1093000000,	54.25,	8.11
 1094000000,	54.25,	7.97
 1095000000,	54.25,	8.04
 1096000000,	54.25,	8.10
 1097000000,	54.26,	7.95
 1098000000,	54.26,	7.96
 1099000000,	54.26,	8.12
 1100000000,	54.27,	8.10
 1101000000,	54.27,	7.88
 1102000000,	54.28,	7.89
 1103000000,	54.27,	7.94
 1104000000,	54.28,	8.03
 1105000000,	54.29,	8.01
 1106000000,	54.30,	7.86
 1107000000,	54.30,	7.99
 1108000000,	54.31,	8.13
 1109000000,	54.32,	8.23
 1110000000,	54.32,	7.98
 1111000000,	54.33,	8.04
 1112000000,	54.33,	8.13
 1113000000,	54.34,	8.07
 1114000000,	54.35,	7.98
 1115000000,	54.36,	8.09
 1116000000,	54.37,	8.09
 1117000000,	54.37,	7.93
 1118000000,	54.38,	8.10
 1119000000,	54.39,	7.96
 1120000000,	54.40,	8.03
 1121000000,	54.41,	8.03
 1122000000,	54.42,	8.12
 1123000000,	54.42,	7.93
 1124000000,	54.44,	8.03
 1125000000,	54.45,	8.06
 1126000000,	54.46,	8.11
 1127000000,	54.47,	8.03
 1128000000,	54.48,	8.08
 1129000000,	54.49,	8.08
 1130000000,	54.49,	7.90
 1131000000,	54.50,	8.06
 1132000000,	54.51,	8.02
 1133000000,	54.52,	8.18
 1134000000,	54.53,	7.98
 1135000000,	54.54,	7.88
 1136000000,	54.55,	7.99
 1137000000,	54.56,	8.08
 1138000000,	54.57,	8.02
 1139000000,	54.57,	8.00
 1140000000,	54.58,	8.03
 1141000000,	54.59,	7.93
 1142000000,	54.60,	8.17
 1143000000,	54.61,	8.00
 1144000000,	54.62,	7.99
 1145000000,	54.63,	8.01
 1146000000,	54.63,	8.02
 1147000000,	54.64,	8.05
 1148000000,	54.65,	7.96
 1149000000,	54.65,	7.91
 1150000000,	54.65,	7.94
 1151000000,	54.65,	7.84
 1152000000,	54.65,	7.85
 1153000000,	54.66,	7.99
 1154000000,	54.66,	7.92
 1155000000,	54.66,	8.05
 1156000000,	54.67,	7.98
 1157000000,	54.67,	7.95
 1158000000,	54.67,	7.96
 1159000000,	54.67,	7.94
 1160000000,	54.68,	8.11
 1161000000,	54.68,	8.02
 1162000000,	54.69,	7.98
 1163000000,	54.69,	8.09
 1164000000,	54.69,	8.01
 1165000000,	54.69,	8.12
 1166000000,	54.69,	8.02
 1167000000,	54.69,	8.00
 1168000000,	54.69,	7.97
 1169000000,	54.69,	7.92
 1170000000,	54.69,	7.96
 1171000000,	54.68,	7.86
 1172000000,	54.68,	7.88
 1173000000,	54.68,	7.96
 1174000000,	54.68,	7.93
 1175000000,	54.68,	8.01
 1176000000,	54.68,	7.98
 1177000000,	54.67,	7.81
 1178000000,	54.67,	7.96
 1179000000,	54.67,	8.09
 1180000000,	54.66,	8.04
 1181000000,	54.66,	7.95
 1182000000,	54.66,	7.94
 1183000000,	54.66,	7.90
 1184000000,	54.65,	7.93
 1185000000,	54.65,	7.89
 1186000000,	54.65,	8.04
 1187000000,	54.65,	7.90
 1188000000,	54.64,	8.00
 1189000000,	54.64,	8.02
 1190000000,	54.64,	7.96
 1191000000,	54.64,	8.19
 1192000000,	54.64,	8.00
 1193000000,	54.64,	7.99
 1194000000,	54.64,	7.99
 1195000000,	54.63,	8.07
 1196000000,	54.63,	8.10
 1197000000,	54.63,	8.05
 1198000000,	54.63,	8.12
 1199000000,	54.63,	7.92
 1200000000,	54.63,	8.15
 1201000000,	54.62,	8.03
 1202000000,	54.62,	8.09
 1203000000,	54.62,	8.06
 1204000000,	54.62,	8.03
 1205000000,	54.61,	7.93
 1206000000,	54.62,	8.13
 1207000000,	54.61,	8.10
 1208000000,	54.62,	8.13
 1209000000,	54.63,	8.24
 1210000000,	54.63,	8.24
 1211000000,	54.64,	8.17
 1212000000,	54.64,	8.27
 1213000000,	54.64,	8.17
 1214000000,	54.65,	8.05
 1215000000,	54.66,	8.29
 1216000000,	54.67,	7.99
 1217000000,	54.67,	8.35
 1218000000,	54.68,	8.10
 1219000000,	54.68,	8.17
 1220000000,	54.69,	8.17
 1221000000,	54.70,	8.17
 1222000000,	54.71,	8.18
 1223000000,	54.72,	8.19
 1224000000,	54.73,	8.23
 1225000000,	54.73,	8.20
 1226000000,	54.74,	8.15
 1227000000,	54.75,	8.21
 1228000000,	54.76,	8.07
 1229000000,	54.77,	8.25
 1230000000,	54.78,	8.06
 1231000000,	54.79,	8.12
 1232000000,	54.80,	8.05
 1233000000,	54.81,	8.24
 1234000000,	54.82,	8.08
 1235000000,	54.83,	8.18
 1236000000,	54.84,	8.26
 1237000000,	54.85,	8.09
 1238000000,	54.86,	8.16
 1239000000,	54.87,	8.12
 1240000000,	54.88,	8.12
 1241000000,	54.89,	8.21
 1242000000,	54.90,	7.91
 1243000000,	54.91,	8.19
 1244000000,	54.93,	8.06
 1245000000,	54.94,	8.22
 1246000000,	54.95,	8.19
 1247000000,	54.96,	8.18
 1248000000,	54.97,	8.26
 1249000000,	54.98,	8.13
 1250000000,	55.00,	8.20
 1251000000,	55.01,	8.24
 1252000000,	55.02,	8.06
 1253000000,	55.03,	8.25
 1254000000,	55.04,	8.07
 1255000000,	55.05,	7.83
 1256000000,	55.06,	7.95
 1257000000,	55.07,	8.10
 1258000000,	55.08,	8.10
 1259000000,	55.09,	8.02
 1260000000,	55.09,	8.07
 1261000000,	55.10,	8.02
 1262000000,	55.12,	7.99
 1263000000,	55.13,	8.05
 1264000000,	55.14,	7.92
 1265000000,	55.15,	7.97
 1266000000,	55.16,	8.08
 1267000000,	55.17,	7.97
 1268000000,	55.17,	7.91
 1269000000,	55.18,	7.84
 1270000000,	55.18,	7.84
 1271000000,	55.19,	7.92
 1272000000,	55.20,	8.08
 1273000000,	55.20,	7.90
 1274000000,	55.21,	7.90
 1275000000,	55.21,	7.80
 1276000000,	55.21,	7.88
 1277000000,	55.22,	7.84
 1278000000,	55.22,	7.94
 1279000000,	55.23,	7.94
 1280000000,	55.23,	7.90
 1281000000,	55.23,	7.83
 1282000000,	55.23,	7.84
 1283000000,	55.23,	7.81
 1284000000,	55.23,	7.80
 1285000000,	55.24,	7.79
 1286000000,	55.23,	7.84
 1287000000,	55.24,	7.83
 1288000000,	55.24,	7.76
 1289000000,	55.24,	7.86
 1290000000,	55.24,	7.90
 1291000000,	55.24,	7.90
 1292000000,	55.23,	7.83
 1293000000,	55.23,	7.71
 1294000000,	55.22,	7.72
 1295000000,	55.22,	7.91
 1296000000,	55.22,	7.80
 1297000000,	55.22,	7.78
 1298000000,	55.22,	7.79
 1299000000,	55.21,	7.71
 1300000000,	55.20,	7.67
 1301000000,	55.20,	7.81
 1302000000,	55.19,	7.86
 1303000000,	55.18,	7.85
 1304000000,	55.17,	7.76
 1305000000,	55.17,	7.67
 1306000000,	55.16,	7.75
 1307000000,	55.15,	7.77
 1308000000,	55.14,	7.70
 1309000000,	55.14,	7.69
 1310000000,	55.13,	7.70
 1311000000,	55.12,	7.78
 1312000000,	55.12,	7.95
 1313000000,	55.11,	7.89
 1314000000,	55.10,	7.72
 1315000000,	55.10,	7.76
 1316000000,	55.09,	7.65
 1317000000,	55.08,	7.65
 1318000000,	55.07,	7.76
 1319000000,	55.07,	7.77
 1320000000,	55.06,	7.83
 1321000000,	55.05,	7.87
 1322000000,	55.05,	7.75
 1323000000,	55.04,	7.92
 1324000000,	55.04,	7.72
 1325000000,	55.03,	7.76
 1326000000,	55.03,	7.86
 1327000000,	55.03,	7.64
 1328000000,	55.02,	7.87
 1329000000,	55.02,	7.59
 1330000000,	55.02,	7.95
 1331000000,	55.01,	7.72
 1332000000,	55.01,	7.81
 1333000000,	55.00,	7.87
 1334000000,	55.00,	7.70
 1335000000,	55.00,	7.85
 1336000000,	54.99,	7.64
 1337000000,	54.99,	7.75
 1338000000,	54.99,	7.87
 1339000000,	54.98,	7.69
 1340000000,	54.98,	7.79
 1341000000,	54.98,	7.87
 1342000000,	54.98,	7.84
 1343000000,	54.97,	7.72
 1344000000,	54.97,	7.84
 1345000000,	54.97,	7.81
 1346000000,	54.96,	7.72
 1347000000,	54.96,	7.90
 1348000000,	54.96,	7.83
 1349000000,	54.96,	7.99
 1350000000,	54.96,	7.86
 1351000000,	54.96,	7.99
 1352000000,	54.96,	7.89
 1353000000,	54.96,	7.74
 1354000000,	54.96,	7.92
 1355000000,	54.96,	7.92
 1356000000,	54.96,	8.00
 1357000000,	54.96,	7.87
 1358000000,	54.97,	7.90
 1359000000,	54.97,	7.77
 1360000000,	54.98,	7.86
 1361000000,	54.98,	7.82
 1362000000,	54.98,	7.80
 1363000000,	54.99,	7.95
 1364000000,	55.00,	7.86
 1365000000,	55.00,	7.72
 1366000000,	55.01,	7.84
 1367000000,	55.01,	7.82
 1368000000,	55.02,	7.72
 1369000000,	55.03,	7.87
 1370000000,	55.03,	7.94
 1371000000,	55.04,	8.02
 1372000000,	55.05,	7.99
 1373000000,	55.05,	7.96
 1374000000,	55.06,	7.92
 1375000000,	55.06,	8.10
 1376000000,	55.07,	7.96
 1377000000,	55.08,	7.86
 1378000000,	55.09,	7.97
 1379000000,	55.09,	7.94
 1380000000,	55.10,	7.92
 1381000000,	55.11,	8.02
 1382000000,	55.12,	7.92
 1383000000,	55.12,	8.13
 1384000000,	55.13,	7.91
 1385000000,	55.13,	7.81
 1386000000,	55.14,	7.94
 1387000000,	55.15,	7.91
 1388000000,	55.16,	7.96
 1389000000,	55.17,	8.03
 1390000000,	55.17,	8.00
 1391000000,	55.17,	8.01
 1392000000,	55.18,	8.01
 1393000000,	55.19,	7.98
 1394000000,	55.19,	7.98
 1395000000,	55.19,	8.00
 1396000000,	55.19,	7.99
 1397000000,	55.20,	7.97
 1398000000,	55.20,	7.97
 1399000000,	55.21,	7.84
 1400000000,	55.21,	8.00
 1401000000,	55.22,	7.99
 1402000000,	55.22,	7.97
 1403000000,	55.23,	8.05
 1404000000,	55.23,	8.07
 1405000000,	55.23,	7.98
 1406000000,	55.24,	8.04
 1407000000,	55.24,	8.04
 1408000000,	55.24,	7.98
 1409000000,	55.23,	8.00
 1410000000,	55.23,	7.93
 1411000000,	55.22,	8.05
 1412000000,	55.21,	7.97
 1413000000,	55.21,	8.05
 1414000000,	55.20,	7.99
 1415000000,	55.19,	8.04
 1416000000,	55.19,	7.88
 1417000000,	55.18,	7.94
 1418000000,	55.18,	8.10
 1419000000,	55.17,	8.06
 1420000000,	55.17,	8.19
 1421000000,	55.16,	8.07
 1422000000,	55.16,	8.04
 1423000000,	55.15,	8.26
 1424000000,	55.15,	8.02
 1425000000,	55.14,	8.19
 1426000000,	55.13,	8.16
 1427000000,	55.13,	8.20
 1428000000,	55.12,	8.36
 1429000000,	55.11,	8.21
 1430000000,	55.10,	8.41
 1431000000,	55.09,	8.42
 1432000000,	55.08,	8.30
 1433000000,	55.07,	8.25
 1434000000,	55.06,	8.32
 1435000000,	55.05,	8.24
 1436000000,	55.05,	8.46
 1437000000,	55.04,	8.47
 1438000000,	55.04,	8.49
 1439000000,	55.03,	8.58
 1440000000,	55.02,	8.76
 1441000000,	55.02,	8.79
 1442000000,	55.00,	8.80
 1443000000,	55.00,	8.75
 1444000000,	54.99,	8.67
 1445000000,	54.98,	8.55
 1446000000,	54.98,	8.86
 1447000000,	54.97,	8.61
 1448000000,	54.96,	8.74
 1449000000,	54.96,	8.69
 1450000000,	54.95,	8.68
 1451000000,	54.95,	8.45
 1452000000,	54.93,	8.53
 1453000000,	54.92,	8.52
 1454000000,	54.91,	8.63
 1455000000,	54.90,	8.71
 1456000000,	54.89,	8.70
 1457000000,	54.87,	8.53
 1458000000,	54.86,	8.49
 1459000000,	54.85,	8.55
 1460000000,	54.83,	8.59
 1461000000,	54.82,	8.47
 1462000000,	54.81,	8.61
 1463000000,	54.79,	8.59
 1464000000,	54.78,	8.59
 1465000000,	54.76,	8.57
 1466000000,	54.76,	8.54
 1467000000,	54.74,	8.52
 1468000000,	54.73,	8.72
 1469000000,	54.72,	8.59
 1470000000,	54.71,	8.67
 1471000000,	54.70,	8.59
 1472000000,	54.69,	8.62
 1473000000,	54.68,	8.44
 1474000000,	54.67,	8.71
 1475000000,	54.66,	8.56
 1476000000,	54.65,	8.63
 1477000000,	54.65,	8.72
 1478000000,	54.64,	8.72
 1479000000,	54.63,	8.85
 1480000000,	54.63,	8.70
 1481000000,	54.62,	8.75
 1482000000,	54.62,	8.76
 1483000000,	54.61,	8.59
 1484000000,	54.60,	8.77
 1485000000,	54.60,	8.75
 1486000000,	54.59,	8.74
 1487000000,	54.58,	8.76
 1488000000,	54.58,	8.80
 1489000000,	54.57,	8.84
 1490000000,	54.57,	8.89
 1491000000,	54.56,	8.85
 1492000000,	54.56,	8.78
 1493000000,	54.56,	8.82
 1494000000,	54.56,	8.81
 1495000000,	54.55,	8.77
 1496000000,	54.55,	8.86
 1497000000,	54.55,	8.63
 1498000000,	54.55,	8.81
 1499000000,	54.55,	8.77
 1500000000,	54.56,	8.60
 1501000000,	54.55,	8.70
 1502000000,	54.55,	8.85
 1503000000,	54.55,	8.78
 1504000000,	54.55,	8.73
 1505000000,	54.55,	8.61
 1506000000,	54.55,	8.62
 1507000000,	54.55,	8.69
 1508000000,	54.55,	8.62
 1509000000,	54.55,	8.73
 1510000000,	54.55,	8.83
 1511000000,	54.55,	8.50
 1512000000,	54.56,	8.60
 1513000000,	54.56,	8.79
 1514000000,	54.57,	8.61
 1515000000,	54.57,	8.61
 1516000000,	54.57,	8.68
 1517000000,	54.57,	8.46
 1518000000,	54.57,	8.56
 1519000000,	54.57,	8.57
 1520000000,	54.57,	8.51
 1521000000,	54.57,	8.48
 1522000000,	54.57,	8.48
 1523000000,	54.58,	8.53
 1524000000,	54.58,	8.56
 1525000000,	54.59,	8.65
 1526000000,	54.60,	8.40
 1527000000,	54.60,	8.36
 1528000000,	54.60,	8.47
 1529000000,	54.61,	8.22
 1530000000,	54.61,	8.32
 1531000000,	54.62,	8.36
 1532000000,	54.62,	8.37
 1533000000,	54.63,	8.33
 1534000000,	54.63,	8.31
 1535000000,	54.64,	8.24
 1536000000,	54.64,	8.22
 1537000000,	54.64,	8.21
 1538000000,	54.64,	8.20
 1539000000,	54.64,	8.12
 1540000000,	54.64,	8.06
 1541000000,	54.65,	8.08
 1542000000,	54.65,	8.11
 1543000000,	54.65,	8.10
 1544000000,	54.65,	8.29
 1545000000,	54.66,	8.08
 1546000000,	54.66,	8.02
 1547000000,	54.65,	8.23
 1548000000,	54.65,	8.00
 1549000000,	54.65,	8.10
 1550000000,	54.66,	8.08
 1551000000,	54.65,	8.16
 1552000000,	54.65,	8.08
 1553000000,	54.65,	8.09
 1554000000,	54.65,	8.01
 1555000000,	54.65,	8.02
 1556000000,	54.64,	8.12
 1557000000,	54.63,	8.14
 1558000000,	54.63,	7.98
 1559000000,	54.63,	8.28
 1560000000,	54.62,	8.04
 1561000000,	54.62,	8.16
 1562000000,	54.62,	7.87
 1563000000,	54.61,	8.13
 1564000000,	54.60,	8.10
 1565000000,	54.60,	7.87
 1566000000,	54.59,	8.10
 1567000000,	54.59,	8.05
 1568000000,	54.58,	8.05
 1569000000,	54.57,	8.03
 1570000000,	54.57,	8.31
 1571000000,	54.56,	8.11
 1572000000,	54.55,	8.11
 1573000000,	54.54,	8.09
 1574000000,	54.54,	8.10
 1575000000,	54.52,	8.03
 1576000000,	54.52,	8.06
 1577000000,	54.50,	8.30
 1578000000,	54.49,	8.22
 1579000000,	54.48,	8.18
 1580000000,	54.47,	8.26
 1581000000,	54.46,	8.27
 1582000000,	54.45,	8.21
 1583000000,	54.44,	8.35
 1584000000,	54.42,	8.47
 1585000000,	54.41,	8.43
 1586000000,	54.40,	8.16
 1587000000,	54.38,	8.41
 1588000000,	54.37,	8.47
 1589000000,	54.36,	8.57
 1590000000,	54.35,	8.54
 1591000000,	54.33,	8.36
 1592000000,	54.32,	8.46
 1593000000,	54.31,	8.50
 1594000000,	54.29,	8.66
 1595000000,	54.28,	8.53
 1596000000,	54.27,	8.49
 1597000000,	54.26,	8.62
 1598000000,	54.24,	8.66
 1599000000,	54.23,	8.64
 1600000000,	54.21,	8.82
 1601000000,	54.20,	8.86
 1602000000,	54.18,	8.60
 1603000000,	54.17,	8.67
 1604000000,	54.16,	8.75
 1605000000,	54.14,	8.82
 1606000000,	54.13,	8.79
 1607000000,	54.11,	8.73
 1608000000,	54.10,	8.86
 1609000000,	54.08,	8.77
 1610000000,	54.07,	8.90
 1611000000,	54.05,	8.97
 1612000000,	54.03,	9.01
 1613000000,	54.01,	8.98
 1614000000,	53.99,	9.01
 1615000000,	53.97,	9.12
 1616000000,	53.96,	9.02
 1617000000,	53.94,	9.10
 1618000000,	53.92,	9.08
 1619000000,	53.90,	9.06
 1620000000,	53.89,	8.98
 1621000000,	53.87,	8.99
 1622000000,	53.86,	9.02
 1623000000,	53.85,	9.03
 1624000000,	53.84,	9.07
 1625000000,	53.83,	9.10
 1626000000,	53.83,	9.31
 1627000000,	53.82,	9.14
 1628000000,	53.82,	9.25
 1629000000,	53.82,	9.09
 1630000000,	53.82,	9.23
 1631000000,	53.81,	9.22
 1632000000,	53.81,	9.16
 1633000000,	53.81,	9.03
 1634000000,	53.80,	8.98
 1635000000,	53.80,	9.01
 1636000000,	53.80,	9.07
 1637000000,	53.79,	9.03
 1638000000,	53.79,	8.95
 1639000000,	53.79,	9.09
 1640000000,	53.78,	8.94
 1641000000,	53.78,	8.97
 1642000000,	53.78,	9.02
 1643000000,	53.77,	8.85
 1644000000,	53.77,	8.96
 1645000000,	53.77,	8.83
 1646000000,	53.78,	8.87
 1647000000,	53.77,	8.97
 1648000000,	53.77,	8.82
 1649000000,	53.78,	8.94
 1650000000,	53.77,	8.78
 1651000000,	53.77,	8.74
 1652000000,	53.77,	8.64
 1653000000,	53.77,	8.92
 1654000000,	53.77,	8.82
 1655000000,	53.77,	8.84
 1656000000,	53.77,	8.92
 1657000000,	53.77,	8.88
 1658000000,	53.77,	8.82
 1659000000,	53.78,	8.84
 1660000000,	53.77,	8.78
 1661000000,	53.78,	9.00
 1662000000,	53.78,	8.91
 1663000000,	53.79,	8.83
 1664000000,	53.78,	8.93
 1665000000,	53.78,	8.85
 1666000000,	53.78,	8.99
 1667000000,	53.78,	8.83
 1668000000,	53.78,	8.85
 1669000000,	53.78,	9.12
 1670000000,	53.78,	9.03
