% f (Hz),G_rec (dB),T_e_rec (K)
  900000000,	58.20,	6.22
  901000000,	58.20,	6.18
  902000000,	58.20,	6.31
  903000000,	58.20,	6.23
  904000000,	58.20,	6.08
  905000000,	58.20,	6.16
  906000000,	58.19,	6.17
  907000000,	58.18,	6.20
  908000000,	58.16,	6.17
  909000000,	58.14,	5.96
  910000000,	58.12,	6.13
  911000000,	58.10,	6.10
  912000000,	58.09,	6.05
  913000000,	58.07,	6.16
  914000000,	58.06,	6.14
  915000000,	58.04,	6.05
  916000000,	58.02,	6.06
  917000000,	58.01,	6.16
  918000000,	57.99,	6.19
  919000000,	57.98,	6.23
  920000000,	57.96,	6.09
  921000000,	57.95,	6.04
  922000000,	57.93,	6.13
  923000000,	57.92,	6.07
  924000000,	57.90,	5.94
  925000000,	57.89,	5.92
  926000000,	57.87,	6.08
  927000000,	57.85,	6.03
  928000000,	57.84,	6.08
  929000000,	57.82,	5.95
  930000000,	57.80,	6.01
  931000000,	57.78,	6.09
  932000000,	57.77,	5.92
  933000000,	57.75,	6.06
  934000000,	57.73,	5.97
  935000000,	57.71,	6.03
  936000000,	57.69,	6.15
  937000000,	57.67,	5.99
  938000000,	57.65,	6.21
  939000000,	57.63,	6.27
  940000000,	57.61,	6.04
  941000000,	57.59,	6.05
  942000000,	57.57,	6.13
  943000000,	57.56,	6.20
  944000000,	57.53,	6.08
  945000000,	57.52,	6.17
  946000000,	57.50,	6.05
  947000000,	57.48,	6.22
  948000000,	57.46,	6.16
  949000000,	57.44,	6.11
  950000000,	57.42,	6.18
  951000000,	57.41,	6.16
  952000000,	57.39,	6.17
  953000000,	57.38,	6.20
  954000000,	57.37,	6.26
  955000000,	57.36,	6.20
  956000000,	57.35,	6.21
  957000000,	57.34,	6.10
  958000000,	57.32,	6.18
  959000000,	57.31,	6.25
  960000000,	57.29,	6.03
  961000000,	57.28,	6.11
  962000000,	57.27,	6.14
  963000000,	57.25,	6.13
  964000000,	57.24,	6.24
  965000000,	57.22,	6.22
  966000000,	57.21,	6.05
  967000000,	57.20,	6.13
  968000000,	57.19,	6.10
  969000000,	57.18,	6.06
  970000000,	57.17,	6.09
  971000000,	57.16,	6.27
  972000000,	57.15,	6.31
  973000000,	57.14,	6.13
  974000000,	57.14,	6.23
  975000000,	57.13,	6.22
  976000000,	57.12,	6.28
  977000000,	57.11,	6.27
  978000000,	57.11,	6.29
  979000000,	57.10,	6.27
  980000000,	57.09,	6.23
  981000000,	57.09,	6.34
  982000000,	57.09,	6.28
  983000000,	57.08,	6.30
  984000000,	57.08,	6.43
  985000000,	57.08,	6.22
  986000000,	57.08,	6.34
  987000000,	57.09,	6.32
  988000000,	57.09,	6.17
  989000000,	57.09,	6.25
  990000000,	57.10,	6.40
  991000000,	57.10,	6.26
  992000000,	57.11,	6.33
  993000000,	57.12,	6.34
  994000000,	57.12,	6.38
  995000000,	57.13,	6.36
  996000000,	57.14,	6.37
  997000000,	57.14,	6.53
  998000000,	57.15,	6.35
  999000000,	57.16,	6.32
 1000000000,	57.17,	6.47
 1001000000,	57.18,	6.37
 1002000000,	57.18,	6.45
 1003000000,	57.19,	6.42
 1004000000,	57.20,	6.51
 1005000000,	57.21,	6.57
 1006000000,	57.22,	6.43
 1007000000,	57.22,	6.41
 1008000000,	57.23,	6.46
 1009000000,	57.24,	6.40
 1010000000,	57.24,	6.62
 1011000000,	57.25,	6.50
 1012000000,	57.25,	6.48
 1013000000,	57.25,	6.53
 1014000000,	57.26,	6.67
 1015000000,	57.27,	6.69
 1016000000,	57.28,	6.54
 1017000000,	57.29,	6.49
 1018000000,	57.31,	6.60
 1019000000,	57.32,	6.45
 1020000000,	57.33,	6.50
 1021000000,	57.35,	6.63
 1022000000,	57.35,	6.49
 1023000000,	57.36,	6.67
 1024000000,	57.37,	6.65
 1025000000,	57.38,	6.81
 1026000000,	57.39,	6.75
 1027000000,	57.40,	6.66
 1028000000,	57.41,	6.75
 1029000000,	57.41,	6.71
 1030000000,	57.41,	6.84
 1031000000,	57.42,	6.80
 1032000000,	57.42,	6.82
 1033000000,	57.43,	6.63
 1034000000,	57.43,	6.84
 1035000000,	57.43,	6.82
 1036000000,	57.44,	6.78
 1037000000,	57.44,	6.68
 1038000000,	57.44,	6.75
 1039000000,	57.44,	6.80
 1040000000,	57.44,	6.93
 1041000000,	57.44,	6.67
 1042000000,	57.43,	6.83
 1043000000,	57.43,	6.87
 1044000000,	57.43,	6.76
 1045000000,	57.43,	6.93
 1046000000,	57.43,	6.87
 1047000000,	57.43,	6.90
 1048000000,	57.42,	6.89
 1049000000,	57.42,	6.94
 1050000000,	57.42,	6.80
 1051000000,	57.41,	6.97
 1052000000,	57.41,	6.85
 1053000000,	57.40,	6.80
 1054000000,	57.40,	6.86
 1055000000,	57.39,	7.04
 1056000000,	57.38,	7.02
 1057000000,	57.38,	6.88
 1058000000,	57.37,	7.15
 1059000000,	57.36,	7.05
 1060000000,	57.35,	6.89
 1061000000,	57.34,	7.02
 1062000000,	57.33,	6.99
 1063000000,	57.32,	6.92
 1064000000,	57.32,	6.95
 1065000000,	57.30,	6.85
 1066000000,	57.30,	7.12
 1067000000,	57.29,	7.09
 1068000000,	57.28,	6.94
 1069000000,	57.27,	6.96
 1070000000,	57.27,	6.99
 1071000000,	57.26,	7.08
 1072000000,	57.25,	7.26
 1073000000,	57.25,	7.19
 1074000000,	57.25,	7.19
 1075000000,	57.24,	6.99
 1076000000,	57.23,	6.98
 1077000000,	57.23,	6.94
 1078000000,	57.22,	7.08
 1079000000,	57.22,	7.02
 1080000000,	57.21,	7.03
 1081000000,	57.21,	7.07
 1082000000,	57.21,	6.97
 1083000000,	57.20,	7.12
 1084000000,	57.20,	7.01
 1085000000,	57.20,	7.10
 1086000000,	57.19,	7.09
 1087000000,	57.19,	7.02
 1088000000,	57.19,	7.11
 1089000000,	57.19,	7.26
 1090000000,	57.19,	7.06
 1091000000,	57.19,	7.22
 1092000000,	57.19,	7.20
 1093000000,	57.19,	7.19
 1094000000,	57.19,	7.14
 1095000000,	57.19,	7.11
 1096000000,	57.19,	7.22
 1097000000,	57.20,	7.17
 1098000000,	57.20,	7.19
 1099000000,	57.20,	7.17
 1100000000,	57.20,	7.09
 1101000000,	57.20,	7.20
 1102000000,	57.21,	7.09
 1103000000,	57.21,	7.04
 1104000000,	57.21,	7.03
 1105000000,	57.22,	7.18
 1106000000,	57.22,	7.10
 1107000000,	57.23,	7.17
 1108000000,	57.23,	7.07
 1109000000,	57.24,	7.11
 1110000000,	57.24,	7.13
 1111000000,	57.25,	7.15
 1112000000,	57.26,	7.15
 1113000000,	57.26,	7.11
 1114000000,	57.27,	7.10
 1115000000,	57.28,	7.10
 1116000000,	57.28,	7.10
 1117000000,	57.28,	7.13
 1118000000,	57.29,	7.08
 1119000000,	57.29,	7.00
 1120000000,	57.29,	7.18
 1121000000,	57.30,	7.04
 1122000000,	57.30,	7.04
 1123000000,	57.31,	7.11
 1124000000,	57.32,	7.10
 1125000000,	57.32,	7.03
 1126000000,	57.33,	7.05
 1127000000,	57.34,	7.11
 1128000000,	57.35,	7.14
 1129000000,	57.35,	6.97
 1130000000,	57.36,	7.02
 1131000000,	57.37,	7.01
 1132000000,	57.37,	6.94
 1133000000,	57.37,	7.07
 1134000000,	57.38,	7.08
 1135000000,	57.39,	7.11
 1136000000,	57.39,	7.14
 1137000000,	57.40,	7.13
 1138000000,	57.40,	6.97
 1139000000,	57.40,	7.22
 1140000000,	57.41,	7.20
 1141000000,	57.41,	6.86
 1142000000,	57.41,	7.11
 1143000000,	57.42,	7.09
 1144000000,	57.42,	7.02
 1145000000,	57.42,	6.92
 1146000000,	57.42,	6.98
 1147000000,	57.42,	7.03
 1148000000,	57.42,	7.12
 1149000000,	57.42,	7.07
 1150000000,	57.42,	7.23
 1151000000,	57.42,	7.10
 1152000000,	57.42,	7.04
 1153000000,	57.42,	7.11
 1154000000,	57.42,	7.04
 1155000000,	57.42,	7.00
 1156000000,	57.42,	7.16
 1157000000,	57.41,	7.12
 1158000000,	57.41,	7.06
 1159000000,	57.41,	7.21
 1160000000,	57.41,	6.98
 1161000000,	57.40,	7.10
 1162000000,	57.40,	7.11
 1163000000,	57.40,	7.10
 1164000000,	57.39,	7.06
 1165000000,	57.39,	7.20
 1166000000,	57.38,	6.89
 1167000000,	57.38,	7.14
 1168000000,	57.38,	7.03
 1169000000,	57.37,	7.02
 1170000000,	57.36,	7.29
 1171000000,	57.36,	7.16
 1172000000,	57.36,	7.02
 1173000000,	57.35,	7.31
 1174000000,	57.35,	7.06
 1175000000,	57.34,	7.13
 1176000000,	57.34,	7.17
 1177000000,	57.33,	7.15
 1178000000,	57.33,	7.17
 1179000000,	57.32,	7.25
 1180000000,	57.32,	7.09
 1181000000,	57.31,	6.96
 1182000000,	57.31,	7.14
 1183000000,	57.31,	7.27
 1184000000,	57.30,	7.24
 1185000000,	57.30,	7.23
 1186000000,	57.29,	7.20
 1187000000,	57.29,	7.19
 1188000000,	57.29,	7.24
 1189000000,	57.29,	7.24
 1190000000,	57.29,	7.26
 1191000000,	57.29,	7.33
 1192000000,	57.29,	7.19
 1193000000,	57.29,	7.29
 1194000000,	57.29,	7.43
 1195000000,	57.29,	7.40
 1196000000,	57.28,	7.36
 1197000000,	57.28,	7.28
 1198000000,	57.28,	7.33
 1199000000,	57.28,	7.43
 1200000000,	57.28,	7.33
 1201000000,	57.28,	7.37
 1202000000,	57.28,	7.31
 1203000000,	57.28,	7.21
 1204000000,	57.28,	7.30
 1205000000,	57.29,	7.36
 1206000000,	57.29,	7.45
 1207000000,	57.29,	7.39
 1208000000,	57.29,	7.38
 1209000000,	57.30,	7.19
 1210000000,	57.31,	7.31
 1211000000,	57.31,	7.17
 1212000000,	57.32,	7.42
 1213000000,	57.33,	7.25
 1214000000,	57.33,	7.31
 1215000000,	57.34,	7.34
 1216000000,	57.35,	7.38
 1217000000,	57.36,	7.24
 1218000000,	57.37,	7.19
 1219000000,	57.38,	7.21
 1220000000,	57.39,	7.52
 1221000000,	57.40,	7.30
 1222000000,	57.40,	7.42
 1223000000,	57.42,	7.32
 1224000000,	57.42,	7.08
 1225000000,	57.43,	7.42
 1226000000,	57.44,	7.25
 1227000000,	57.45,	7.31
 1228000000,	57.46,	7.35
 1229000000,	57.48,	7.38
 1230000000,	57.49,	7.25
 1231000000,	57.50,	7.12
 1232000000,	57.51,	7.13
 1233000000,	57.53,	7.16
 1234000000,	57.54,	7.10
 1235000000,	57.56,	7.27
 1236000000,	57.57,	7.14
 1237000000,	57.58,	7.20
 1238000000,	57.59,	7.11
 1239000000,	57.60,	7.11
 1240000000,	57.61,	7.32
 1241000000,	57.62,	7.04
 1242000000,	57.63,	7.05
 1243000000,	57.64,	7.15
 1244000000,	57.66,	7.31
 1245000000,	57.67,	7.16
 1246000000,	57.68,	7.07
 1247000000,	57.69,	7.01
 1248000000,	57.70,	7.03
 1249000000,	57.71,	7.11
 1250000000,	57.72,	6.97
 1251000000,	57.73,	7.13
 1252000000,	57.74,	7.06
 1253000000,	57.75,	7.09
 1254000000,	57.76,	7.12
 1255000000,	57.78,	7.18
 1256000000,	57.78,	7.05
 1257000000,	57.79,	6.98
 1258000000,	57.80,	6.90
 1259000000,	57.81,	6.98
 1260000000,	57.82,	7.09
 1261000000,	57.83,	6.93
 1262000000,	57.84,	7.02
 1263000000,	57.84,	6.93
 1264000000,	57.85,	6.89
 1265000000,	57.86,	6.97
 1266000000,	57.86,	7.01
 1267000000,	57.87,	6.98
 1268000000,	57.87,	6.82
 1269000000,	57.87,	6.94
 1270000000,	57.87,	6.83
 1271000000,	57.88,	6.88
 1272000000,	57.88,	6.80
 1273000000,	57.88,	6.83
 1274000000,	57.88,	6.82
 1275000000,	57.88,	6.94
 1276000000,	57.88,	6.93
 1277000000,	57.88,	6.79
 1278000000,	57.88,	6.98
 1279000000,	57.88,	6.84
 1280000000,	57.87,	6.78
 1281000000,	57.88,	6.85
 1282000000,	57.87,	6.87
 1283000000,	57.87,	6.75
 1284000000,	57.87,	6.77
 1285000000,	57.87,	6.72
 1286000000,	57.87,	6.96
 1287000000,	57.86,	6.92
 1288000000,	57.86,	6.83
 1289000000,	57.86,	6.86
 1290000000,	57.86,	6.85
 1291000000,	57.85,	6.85
 1292000000,	57.85,	6.90
 1293000000,	57.85,	6.86
 1294000000,	57.84,	6.84
 1295000000,	57.83,	6.93
 1296000000,	57.83,	6.84
 1297000000,	57.82,	6.88
 1298000000,	57.81,	6.80
 1299000000,	57.80,	6.90
 1300000000,	57.79,	6.81
 1301000000,	57.78,	6.94
 1302000000,	57.77,	6.76
 1303000000,	57.76,	7.11
 1304000000,	57.75,	6.85
 1305000000,	57.75,	6.96
 1306000000,	57.74,	6.83
 1307000000,	57.73,	6.83
 1308000000,	57.72,	6.83
 1309000000,	57.72,	6.79
 1310000000,	57.71,	6.83
 1311000000,	57.70,	6.91
 1312000000,	57.69,	6.77
 1313000000,	57.68,	7.03
 1314000000,	57.68,	6.91
 1315000000,	57.67,	6.82
 1316000000,	57.66,	6.97
 1317000000,	57.65,	6.82
 1318000000,	57.65,	6.83
 1319000000,	57.64,	6.80
 1320000000,	57.63,	6.78
 1321000000,	57.62,	6.94
 1322000000,	57.61,	6.84
 1323000000,	57.61,	6.90
 1324000000,	57.60,	6.76
 1325000000,	57.59,	6.80
 1326000000,	57.58,	6.89
 1327000000,	57.58,	6.88
 1328000000,	57.57,	6.77
 1329000000,	57.56,	6.73
 1330000000,	57.56,	6.85
 1331000000,	57.55,	6.93
 1332000000,	57.54,	6.78
 1333000000,	57.54,	6.71
 1334000000,	57.53,	6.91
 1335000000,	57.53,	6.81
 1336000000,	57.52,	6.73
 1337000000,	57.51,	6.87
 1338000000,	57.51,	6.76
 1339000000,	57.50,	6.90
 1340000000,	57.49,	6.87
 1341000000,	57.49,	6.92
 1342000000,	57.49,	6.86
 1343000000,	57.49,	6.94
 1344000000,	57.49,	6.94
 1345000000,	57.49,	6.77
 1346000000,	57.50,	6.97
 1347000000,	57.50,	6.95
 1348000000,	57.51,	6.88
 1349000000,	57.51,	6.94
 1350000000,	57.52,	7.04
 1351000000,	57.53,	6.88
 1352000000,	57.54,	6.98
 1353000000,	57.54,	6.87
 1354000000,	57.55,	6.95
 1355000000,	57.55,	6.91
 1356000000,	57.55,	6.84
 1357000000,	57.55,	6.82
 1358000000,	57.55,	6.92
 1359000000,	57.55,	6.91
 1360000000,	57.55,	6.72
 1361000000,	57.55,	6.90
 1362000000,	57.55,	6.90
 1363000000,	57.55,	7.03
 1364000000,	57.56,	6.85
 1365000000,	57.56,	6.95
 1366000000,	57.56,	6.92
 1367000000,	57.56,	6.95
 1368000000,	57.56,	6.91
 1369000000,	57.57,	6.95
 1370000000,	57.57,	6.93
 1371000000,	57.58,	7.03
 1372000000,	57.58,	7.06
 1373000000,	57.58,	6.96
 1374000000,	57.58,	7.11
 1375000000,	57.59,	7.06
 1376000000,	57.59,	7.09
 1377000000,	57.59,	7.11
 1378000000,	57.60,	7.04
 1379000000,	57.60,	7.16
 1380000000,	57.60,	7.19
 1381000000,	57.61,	7.08
 1382000000,	57.61,	7.17
 1383000000,	57.61,	7.11
 1384000000,	57.61,	7.17
 1385000000,	57.61,	7.12
 1386000000,	57.62,	7.07
 1387000000,	57.62,	7.19
 1388000000,	57.62,	7.13
 1389000000,	57.62,	7.16
 1390000000,	57.62,	7.22
 1391000000,	57.62,	7.00
 1392000000,	57.62,	7.16
 1393000000,	57.62,	7.16
 1394000000,	57.62,	7.17
 1395000000,	57.62,	7.09
 1396000000,	57.61,	6.96
 1397000000,	57.61,	7.12
 1398000000,	57.61,	7.16
 1399000000,	57.61,	7.01
 1400000000,	57.61,	7.01
 1401000000,	57.61,	7.07
 1402000000,	57.60,	6.98
 1403000000,	57.60,	7.00
 1404000000,	57.59,	7.10
 1405000000,	57.59,	7.02
 1406000000,	57.58,	6.94
 1407000000,	57.58,	6.95
 1408000000,	57.57,	7.08
 1409000000,	57.56,	7.00
 1410000000,	57.55,	6.91
 1411000000,	57.54,	6.91
 1412000000,	57.53,	6.91
 1413000000,	57.52,	6.98
 1414000000,	57.51,	6.87
 1415000000,	57.50,	6.87
 1416000000,	57.48,	6.82
 1417000000,	57.47,	7.00
 1418000000,	57.46,	7.06
 1419000000,	57.45,	7.05
 1420000000,	57.43,	6.87
 1421000000,	57.42,	6.92
 1422000000,	57.41,	7.12
 1423000000,	57.39,	6.99
 1424000000,	57.37,	7.14
 1425000000,	57.36,	7.04
 1426000000,	57.35,	7.21
 1427000000,	57.33,	7.13
 1428000000,	57.31,	7.22
 1429000000,	57.30,	7.20
 1430000000,	57.28,	7.26
 1431000000,	57.26,	7.28
 1432000000,	57.25,	7.48
 1433000000,	57.23,	7.51
 1434000000,	57.21,	7.61
 1435000000,	57.20,	7.51
 1436000000,	57.18,	7.62
 1437000000,	57.16,	7.71
 1438000000,	57.15,	7.77
 1439000000,	57.13,	7.80
 1440000000,	57.11,	7.99
 1441000000,	57.10,	7.87
 1442000000,	57.08,	7.91
 1443000000,	57.07,	8.05
 1444000000,	57.06,	8.24
 1445000000,	57.05,	8.23
 1446000000,	57.04,	8.17
 1447000000,	57.02,	8.17
 1448000000,	57.01,	8.20
 1449000000,	57.00,	8.25
 1450000000,	57.00,	8.20
 1451000000,	56.99,	8.27
 1452000000,	56.98,	8.19
 1453000000,	56.97,	8.32
 1454000000,	56.96,	8.21
 1455000000,	56.95,	8.23
 1456000000,	56.94,	8.08
 1457000000,	56.94,	8.18
 1458000000,	56.93,	8.08
 1459000000,	56.92,	7.91
 1460000000,	56.91,	7.98
 1461000000,	56.90,	7.95
 1462000000,	56.89,	7.79
 1463000000,	56.89,	7.88
 1464000000,	56.88,	7.85
 1465000000,	56.87,	7.75
 1466000000,	56.86,	7.77
 1467000000,	56.86,	7.71
 1468000000,	56.85,	7.87
 1469000000,	56.84,	7.79
 1470000000,	56.84,	7.65
 1471000000,	56.83,	7.72
 1472000000,	56.82,	7.84
 1473000000,	56.82,	7.84
 1474000000,	56.81,	7.65
 1475000000,	56.81,	7.73
 1476000000,	56.81,	7.72
 1477000000,	56.80,	7.78
 1478000000,	56.80,	7.61
 1479000000,	56.80,	7.60
 1480000000,	56.80,	7.79
 1481000000,	56.80,	7.50
 1482000000,	56.80,	7.63
 1483000000,	56.80,	7.73
 1484000000,	56.80,	7.51
 1485000000,	56.80,	7.61
 1486000000,	56.80,	7.50
 1487000000,	56.80,	7.58
 1488000000,	56.80,	7.50
 1489000000,	56.80,	7.65
 1490000000,	56.80,	7.62
 1491000000,	56.80,	7.68
 1492000000,	56.80,	7.47
 1493000000,	56.80,	7.59
 1494000000,	56.81,	7.42
 1495000000,	56.81,	7.65
 1496000000,	56.82,	7.51
 1497000000,	56.83,	7.52
 1498000000,	56.83,	7.48
 1499000000,	56.84,	7.58
 1500000000,	56.85,	7.41
 1501000000,	56.86,	7.53
 1502000000,	56.87,	7.49
 1503000000,	56.87,	7.43
 1504000000,	56.88,	7.50
 1505000000,	56.89,	7.22
 1506000000,	56.90,	7.39
 1507000000,	56.91,	7.28
 1508000000,	56.92,	7.30
 1509000000,	56.93,	7.29
 1510000000,	56.94,	7.39
 1511000000,	56.95,	7.28
 1512000000,	56.96,	7.28
 1513000000,	56.96,	7.33
 1514000000,	56.97,	7.35
 1515000000,	56.98,	7.39
 1516000000,	56.99,	7.18
 1517000000,	57.00,	7.33
 1518000000,	57.01,	7.31
 1519000000,	57.02,	7.19
 1520000000,	57.03,	7.07
 1521000000,	57.04,	7.18
 1522000000,	57.05,	7.05
 1523000000,	57.06,	7.20
 1524000000,	57.07,	7.28
 1525000000,	57.08,	7.18
 1526000000,	57.09,	7.10
 1527000000,	57.10,	7.05
 1528000000,	57.11,	7.13
 1529000000,	57.12,	7.31
 1530000000,	57.13,	7.05
 1531000000,	57.14,	7.11
 1532000000,	57.14,	7.07
 1533000000,	57.15,	7.00
 1534000000,	57.16,	7.15
 1535000000,	57.16,	6.98
 1536000000,	57.17,	7.00
 1537000000,	57.18,	7.12
 1538000000,	57.19,	7.05
 1539000000,	57.19,	7.16
 1540000000,	57.20,	7.11
 1541000000,	57.20,	7.02
 1542000000,	57.21,	7.16
 1543000000,	57.21,	6.92
 1544000000,	57.22,	7.07
 1545000000,	57.22,	6.89
 1546000000,	57.22,	6.99
 1547000000,	57.23,	6.87
 1548000000,	57.23,	7.03
 1549000000,	57.23,	6.90
 1550000000,	57.23,	6.86
 1551000000,	57.23,	6.92
 1552000000,	57.23,	6.78
 1553000000,	57.23,	6.99
 1554000000,	57.23,	7.07
 1555000000,	57.23,	7.00
 1556000000,	57.22,	6.91
 1557000000,	57.22,	6.93
 1558000000,	57.22,	6.92
 1559000000,	57.22,	7.09
 1560000000,	57.21,	6.94
 1561000000,	57.21,	7.04
 1562000000,	57.21,	7.02
 1563000000,	57.20,	6.97
 1564000000,	57.20,	6.92
 1565000000,	57.19,	7.14
 1566000000,	57.18,	6.80
 1567000000,	57.18,	6.87
 1568000000,	57.17,	6.92
 1569000000,	57.17,	7.06
 1570000000,	57.16,	7.10
 1571000000,	57.15,	7.02
 1572000000,	57.14,	7.09
 1573000000,	57.13,	7.03
 1574000000,	57.12,	7.10
 1575000000,	57.12,	7.09
 1576000000,	57.10,	7.23
 1577000000,	57.10,	7.05
 1578000000,	57.09,	7.25
 1579000000,	57.08,	7.17
 1580000000,	57.07,	7.17
 1581000000,	57.06,	7.19
 1582000000,	57.05,	7.19
 1583000000,	57.04,	7.22
 1584000000,	57.03,	7.31
 1585000000,	57.02,	7.19
 1586000000,	57.01,	7.27
 1587000000,	57.00,	7.29
 1588000000,	56.99,	7.17
 1589000000,	56.98,	7.26
 1590000000,	56.97,	7.33
 1591000000,	56.96,	7.31
 1592000000,	56.95,	7.32
 1593000000,	56.94,	7.40
 1594000000,	56.93,	7.56
 1595000000,	56.92,	7.45
 1596000000,	56.91,	7.40
 1597000000,	56.90,	7.48
 1598000000,	56.89,	7.28
 1599000000,	56.87,	7.36
 1600000000,	56.86,	7.37
 1601000000,	56.85,	7.51
 1602000000,	56.83,	7.50
 1603000000,	56.82,	7.47
 1604000000,	56.80,	7.46
 1605000000,	56.79,	7.40
 1606000000,	56.77,	7.48
 1607000000,	56.76,	7.47
 1608000000,	56.74,	7.49
 1609000000,	56.73,	7.45
 1610000000,	56.71,	7.39
 1611000000,	56.70,	7.46
 1612000000,	56.69,	7.57
 1613000000,	56.68,	7.51
 1614000000,	56.67,	7.40
 1615000000,	56.66,	7.49
 1616000000,	56.65,	7.51
 1617000000,	56.64,	7.53
 1618000000,	56.64,	7.53
 1619000000,	56.63,	7.55
 1620000000,	56.62,	7.41
 1621000000,	56.61,	7.48
 1622000000,	56.60,	7.51
 1623000000,	56.60,	7.23
 1624000000,	56.59,	7.51
 1625000000,	56.59,	7.45
 1626000000,	56.59,	7.56
 1627000000,	56.59,	7.51
 1628000000,	56.59,	7.30
 1629000000,	56.59,	7.31
 1630000000,	56.58,	7.30
 1631000000,	56.58,	7.40
 1632000000,	56.57,	7.42
 1633000000,	56.56,	7.38
 1634000000,	56.55,	7.30
 1635000000,	56.55,	7.34
 1636000000,	56.55,	7.26
 1637000000,	56.54,	7.32
 1638000000,	56.54,	7.24
 1639000000,	56.53,	7.21
 1640000000,	56.53,	7.13
 1641000000,	56.53,	7.20
 1642000000,	56.53,	7.30
 1643000000,	56.52,	7.40
 1644000000,	56.52,	7.33
 1645000000,	56.52,	7.27
 1646000000,	56.52,	7.30
 1647000000,	56.53,	7.30
 1648000000,	56.53,	7.38
 1649000000,	56.53,	7.33
 1650000000,	56.53,	7.30
 1651000000,	56.54,	7.29
 1652000000,	56.54,	7.56
 1653000000,	56.54,	7.46
 1654000000,	56.54,	7.58
 1655000000,	56.54,	7.56
 1656000000,	56.54,	7.46
 1657000000,	56.54,	7.45
 1658000000,	56.54,	7.60
 1659000000,	56.54,	7.55
 1660000000,	56.53,	7.46
 1661000000,	56.53,	7.56
 1662000000,	56.53,	7.49
 1663000000,	56.52,	7.47
 1664000000,	56.52,	7.61
 1665000000,	56.51,	7.76
 1666000000,	56.51,	7.81
 1667000000,	56.50,	7.65
 1668000000,	56.50,	7.85
 1669000000,	56.50,	7.92
 1670000000,	56.50,	7.87
