% f (Hz),G_rec (dB),T_e_rec (K)
  900000000,	56.78,	6.67
  901000000,	56.76,	6.72
  902000000,	56.74,	6.81
  903000000,	56.71,	6.73
  904000000,	56.69,	6.76
  905000000,	56.67,	6.58
  906000000,	56.65,	6.83
  907000000,	56.64,	6.79
  908000000,	56.63,	6.74
  909000000,	56.62,	6.78
  910000000,	56.61,	6.67
  911000000,	56.61,	6.63
  912000000,	56.60,	6.78
  913000000,	56.59,	6.78
  914000000,	56.59,	6.70
  915000000,	56.58,	6.79
  916000000,	56.57,	6.61
  917000000,	56.56,	6.57
  918000000,	56.55,	6.67
  919000000,	56.54,	6.64
  920000000,	56.53,	6.68
  921000000,	56.51,	6.78
  922000000,	56.50,	6.71
  923000000,	56.49,	6.68
  924000000,	56.47,	6.66
  925000000,	56.45,	6.66
  926000000,	56.44,	6.68
  927000000,	56.43,	6.78
  928000000,	56.41,	6.65
  929000000,	56.39,	6.74
  930000000,	56.37,	6.67
  931000000,	56.36,	6.84
  932000000,	56.34,	6.74
  933000000,	56.32,	6.72
  934000000,	56.30,	6.78
  935000000,	56.28,	6.74
  936000000,	56.26,	6.81
  937000000,	56.24,	6.64
  938000000,	56.23,	6.82
  939000000,	56.21,	6.70
  940000000,	56.19,	6.81
  941000000,	56.17,	6.88
  942000000,	56.15,	6.86
  943000000,	56.13,	6.71
  944000000,	56.11,	6.81
  945000000,	56.09,	6.82
  946000000,	56.07,	6.76
  947000000,	56.05,	6.66
  948000000,	56.03,	6.90
  949000000,	56.02,	6.65
  950000000,	55.99,	6.84
  951000000,	55.97,	6.88
  952000000,	55.95,	6.78
  953000000,	55.93,	6.90
  954000000,	55.91,	6.75
  955000000,	55.89,	6.65
  956000000,	55.87,	6.85
  957000000,	55.85,	6.86
  958000000,	55.84,	6.85
  959000000,	55.82,	6.82
  960000000,	55.80,	6.88
  961000000,	55.78,	6.76
  962000000,	55.77,	6.77
  963000000,	55.75,	6.84
  964000000,	55.74,	6.63
  965000000,	55.73,	6.78
  966000000,	55.72,	6.81
  967000000,	55.71,	6.87
  968000000,	55.70,	6.78
  969000000,	55.69,	6.74
  970000000,	55.68,	6.85
  971000000,	55.67,	6.89
  972000000,	55.66,	6.67
  973000000,	55.65,	6.77
  974000000,	55.64,	6.81
  975000000,	55.64,	6.77
  976000000,	55.62,	6.78
  977000000,	55.62,	6.77
  978000000,	55.61,	6.94
  979000000,	55.61,	6.86
  980000000,	55.60,	6.84
  981000000,	55.60,	6.72
  982000000,	55.60,	6.85
  983000000,	55.59,	6.89
  984000000,	55.59,	6.84
  985000000,	55.59,	6.80
  986000000,	55.59,	6.92
  987000000,	55.59,	6.96
  988000000,	55.60,	6.84
  989000000,	55.59,	6.68
  990000000,	55.60,	6.80
  991000000,	55.60,	6.82
  992000000,	55.60,	6.88
  993000000,	55.61,	6.78
  994000000,	55.61,	6.98
  995000000,	55.62,	6.89
  996000000,	55.62,	6.86
  997000000,	55.63,	6.83
  998000000,	55.64,	6.83
  999000000,	55.64,	6.83
 1000000000,	55.65,	6.98
 1001000000,	55.65,	6.89
 1002000000,	55.66,	6.91
 1003000000,	55.67,	6.76
 1004000000,	55.68,	6.85
 1005000000,	55.68,	6.90
 1006000000,	55.69,	7.06
 1007000000,	55.70,	6.96
 1008000000,	55.71,	6.94
 1009000000,	55.72,	7.01
 1010000000,	55.73,	7.04
 1011000000,	55.73,	7.17
 1012000000,	55.75,	7.07
 1013000000,	55.76,	7.01
 1014000000,	55.77,	6.96
 1015000000,	55.78,	7.09
 1016000000,	55.79,	6.98
 1017000000,	55.79,	7.04
 1018000000,	55.80,	7.14
 1019000000,	55.81,	7.12
 1020000000,	55.82,	7.15
 1021000000,	55.82,	7.13
 1022000000,	55.83,	7.21
 1023000000,	55.83,	7.15
 1024000000,	55.84,	7.19
 1025000000,	55.84,	7.29
 1026000000,	55.85,	7.23
 1027000000,	55.85,	7.16
 1028000000,	55.86,	7.22
 1029000000,	55.86,	7.35
 1030000000,	55.87,	7.40
 1031000000,	55.86,	7.12
 1032000000,	55.87,	7.29
 1033000000,	55.87,	7.29
 1034000000,	55.87,	7.41
 1035000000,	55.87,	7.25
 1036000000,	55.87,	7.15
 1037000000,	55.87,	7.41
 1038000000,	55.87,	7.51
 1039000000,	55.87,	7.37
 1040000000,	55.87,	7.39
 1041000000,	55.87,	7.34
 1042000000,	55.86,	7.57
 1043000000,	55.86,	7.47
 1044000000,	55.85,	7.58
 1045000000,	55.85,	7.52
 1046000000,	55.85,	7.53
 1047000000,	55.84,	7.60
 1048000000,	55.84,	7.63
 1049000000,	55.83,	7.60
 1050000000,	55.83,	7.52
 1051000000,	55.82,	7.51
 1052000000,	55.81,	7.60
 1053000000,	55.81,	7.60
 1054000000,	55.80,	7.69
 1055000000,	55.79,	7.58
 1056000000,	55.79,	7.66
 1057000000,	55.78,	7.71
 1058000000,	55.77,	7.78
 1059000000,	55.77,	7.73
 1060000000,	55.76,	7.70
 1061000000,	55.75,	7.73
 1062000000,	55.74,	7.89
 1063000000,	55.73,	7.83
 1064000000,	55.73,	7.75
 1065000000,	55.72,	7.65
 1066000000,	55.72,	7.74
 1067000000,	55.71,	7.95
 1068000000,	55.70,	7.83
 1069000000,	55.70,	7.85
 1070000000,	55.69,	7.68
 1071000000,	55.69,	7.77
 1072000000,	55.68,	7.87
 1073000000,	55.66,	7.72
 1074000000,	55.65,	7.99
 1075000000,	55.64,	7.75
 1076000000,	55.62,	7.86
 1077000000,	55.61,	7.88
 1078000000,	55.60,	8.08
 1079000000,	55.60,	7.80
 1080000000,	55.59,	8.06
 1081000000,	55.59,	7.76
 1082000000,	55.59,	7.77
 1083000000,	55.59,	7.79
 1084000000,	55.59,	7.90
 1085000000,	55.58,	7.69
 1086000000,	55.58,	7.87
 1087000000,	55.58,	7.99
 1088000000,	55.58,	7.86
 1089000000,	55.58,	7.84
 1090000000,	55.59,	7.78
 1091000000,	55.59,	7.97
 1092000000,	55.59,	7.67
 1093000000,	55.59,	7.80
 1094000000,	55.59,	7.85
 1095000000,	55.59,	7.85
 1096000000,	55.60,	7.92
 1097000000,	55.60,	7.78
 1098000000,	55.60,	7.92
 1099000000,	55.61,	7.88
 1100000000,	55.61,	7.82
 1101000000,	55.62,	7.92
 1102000000,	55.62,	7.86
 1103000000,	55.63,	7.69
 1104000000,	55.64,	7.85
 1105000000,	55.65,	7.92
 1106000000,	55.65,	7.95
 1107000000,	55.66,	7.82
 1108000000,	55.67,	7.72
 1109000000,	55.67,	7.82
 1110000000,	55.68,	7.83
 1111000000,	55.69,	7.72
 1112000000,	55.69,	7.88
 1113000000,	55.70,	7.76
 1114000000,	55.70,	7.77
 1115000000,	55.71,	7.76
 1116000000,	55.72,	7.96
 1117000000,	55.72,	7.78
 1118000000,	55.73,	7.82
 1119000000,	55.74,	7.86
 1120000000,	55.74,	7.75
 1121000000,	55.75,	7.83
 1122000000,	55.76,	7.73
 1123000000,	55.76,	7.80
 1124000000,	55.77,	7.68
 1125000000,	55.78,	7.79
 1126000000,	55.78,	7.83
 1127000000,	55.79,	7.82
 1128000000,	55.79,	7.81
 1129000000,	55.80,	7.64
 1130000000,	55.81,	7.86
 1131000000,	55.81,	7.65
 1132000000,	55.82,	7.73
 1133000000,	55.82,	7.57
 1134000000,	55.82,	7.79
 1135000000,	55.83,	7.78
 1136000000,	55.83,	7.70
 1137000000,	55.84,	7.79
 1138000000,	55.84,	7.81
 1139000000,	55.84,	7.66
 1140000000,	55.85,	7.80
 1141000000,	55.85,	7.72
 1142000000,	55.85,	7.78
 1143000000,	55.85,	7.71
 1144000000,	55.85,	7.98
 1145000000,	55.85,	7.88
 1146000000,	55.85,	7.83
 1147000000,	55.85,	7.72
 1148000000,	55.85,	7.80
 1149000000,	55.85,	7.80
 1150000000,	55.85,	7.86
 1151000000,	55.85,	7.83
 1152000000,	55.85,	7.86
 1153000000,	55.84,	7.80
 1154000000,	55.84,	7.81
 1155000000,	55.84,	7.69
 1156000000,	55.83,	7.81
 1157000000,	55.83,	7.84
 1158000000,	55.83,	7.72
 1159000000,	55.82,	7.93
 1160000000,	55.82,	7.99
 1161000000,	55.81,	8.04
 1162000000,	55.81,	8.07
 1163000000,	55.80,	8.02
 1164000000,	55.80,	8.00
 1165000000,	55.79,	7.97
 1166000000,	55.79,	7.99
 1167000000,	55.78,	8.03
 1168000000,	55.78,	7.98
 1169000000,	55.77,	8.10
 1170000000,	55.77,	7.96
 1171000000,	55.76,	8.13
 1172000000,	55.75,	8.01
 1173000000,	55.75,	7.98
 1174000000,	55.74,	7.90
 1175000000,	55.74,	7.99
 1176000000,	55.73,	7.89
 1177000000,	55.73,	8.01
 1178000000,	55.72,	8.06
 1179000000,	55.71,	7.88
 1180000000,	55.71,	8.23
 1181000000,	55.71,	8.11
 1182000000,	55.70,	8.08
 1183000000,	55.70,	8.06
 1184000000,	55.70,	8.18
 1185000000,	55.70,	8.10
 1186000000,	55.69,	8.05
 1187000000,	55.69,	8.09
 1188000000,	55.69,	8.16
 1189000000,	55.69,	8.25
 1190000000,	55.69,	8.16
 1191000000,	55.68,	8.27
 1192000000,	55.68,	8.39
 1193000000,	55.69,	8.26
 1194000000,	55.68,	8.17
 1195000000,	55.68,	8.26
 1196000000,	55.69,	8.24
 1197000000,	55.68,	8.32
 1198000000,	55.69,	8.36
 1199000000,	55.69,	8.20
 1200000000,	55.69,	8.30
 1201000000,	55.70,	8.23
 1202000000,	55.70,	8.07
 1203000000,	55.70,	8.22
 1204000000,	55.70,	8.17
 1205000000,	55.70,	8.19
 1206000000,	55.71,	8.27
 1207000000,	55.71,	8.33
 1208000000,	55.72,	8.37
 1209000000,	55.72,	8.39
 1210000000,	55.73,	8.28
 1211000000,	55.73,	8.17
 1212000000,	55.73,	8.20
 1213000000,	55.74,	8.24
 1214000000,	55.74,	8.30
 1215000000,	55.74,	8.20
 1216000000,	55.74,	8.21
 1217000000,	55.73,	8.24
 1218000000,	55.73,	8.19
 1219000000,	55.74,	8.33
 1220000000,	55.75,	8.33
 1221000000,	55.76,	8.22
 1222000000,	55.77,	8.09
 1223000000,	55.78,	8.27
 1224000000,	55.79,	8.20
 1225000000,	55.81,	8.27
 1226000000,	55.82,	8.14
 1227000000,	55.83,	8.05
 1228000000,	55.85,	8.21
 1229000000,	55.86,	8.04
 1230000000,	55.87,	8.22
 1231000000,	55.88,	8.10
 1232000000,	55.90,	7.97
 1233000000,	55.91,	8.00
 1234000000,	55.92,	8.06
 1235000000,	55.94,	8.06
 1236000000,	55.94,	8.05
 1237000000,	55.96,	7.93
 1238000000,	55.97,	7.93
 1239000000,	55.99,	8.04
 1240000000,	56.00,	7.98
 1241000000,	56.01,	7.96
 1242000000,	56.02,	7.83
 1243000000,	56.03,	7.94
 1244000000,	56.04,	7.91
 1245000000,	56.05,	7.85
 1246000000,	56.06,	7.99
 1247000000,	56.07,	7.90
 1248000000,	56.08,	7.98
 1249000000,	56.09,	7.88
 1250000000,	56.09,	8.01
 1251000000,	56.10,	7.82
 1252000000,	56.11,	7.94
 1253000000,	56.12,	7.80
 1254000000,	56.12,	8.00
 1255000000,	56.13,	7.82
 1256000000,	56.14,	8.21
 1257000000,	56.14,	7.73
 1258000000,	56.15,	7.84
 1259000000,	56.15,	7.93
 1260000000,	56.16,	7.75
 1261000000,	56.16,	7.80
 1262000000,	56.16,	7.77
 1263000000,	56.17,	7.93
 1264000000,	56.17,	7.85
 1265000000,	56.17,	7.95
 1266000000,	56.18,	7.90
 1267000000,	56.18,	7.87
 1268000000,	56.18,	7.86
 1269000000,	56.19,	7.73
 1270000000,	56.19,	7.63
 1271000000,	56.18,	7.73
 1272000000,	56.19,	7.74
 1273000000,	56.18,	7.90
 1274000000,	56.18,	7.79
 1275000000,	56.18,	7.79
 1276000000,	56.18,	7.98
 1277000000,	56.18,	7.75
 1278000000,	56.17,	7.76
 1279000000,	56.17,	7.86
 1280000000,	56.17,	7.86
 1281000000,	56.16,	7.89
 1282000000,	56.16,	7.83
 1283000000,	56.16,	7.84
 1284000000,	56.15,	7.76
 1285000000,	56.14,	7.98
 1286000000,	56.14,	7.95
 1287000000,	56.13,	7.86
 1288000000,	56.13,	8.02
 1289000000,	56.12,	7.87
 1290000000,	56.12,	7.73
 1291000000,	56.11,	7.90
 1292000000,	56.10,	7.86
 1293000000,	56.09,	8.00
 1294000000,	56.09,	7.87
 1295000000,	56.08,	7.76
 1296000000,	56.07,	7.81
 1297000000,	56.06,	7.87
 1298000000,	56.06,	7.78
 1299000000,	56.05,	7.87
 1300000000,	56.04,	7.78
 1301000000,	56.03,	8.02
 1302000000,	56.02,	7.73
 1303000000,	56.01,	7.70
 1304000000,	56.00,	7.80
 1305000000,	55.99,	7.60
 1306000000,	55.98,	7.87
 1307000000,	55.97,	7.82
 1308000000,	55.96,	7.87
 1309000000,	55.95,	7.78
 1310000000,	55.94,	7.86
 1311000000,	55.93,	7.84
 1312000000,	55.93,	7.97
 1313000000,	55.92,	7.93
 1314000000,	55.91,	7.95
 1315000000,	55.90,	7.74
 1316000000,	55.89,	8.02
 1317000000,	55.89,	7.94
 1318000000,	55.88,	7.81
 1319000000,	55.87,	7.86
 1320000000,	55.86,	7.91
 1321000000,	55.86,	7.88
 1322000000,	55.85,	7.86
 1323000000,	55.85,	7.96
 1324000000,	55.84,	7.84
 1325000000,	55.84,	7.79
 1326000000,	55.83,	7.94
 1327000000,	55.83,	7.99
 1328000000,	55.82,	7.85
 1329000000,	55.82,	7.84
 1330000000,	55.82,	7.96
 1331000000,	55.82,	7.85
 1332000000,	55.81,	7.85
 1333000000,	55.81,	7.90
 1334000000,	55.81,	7.84
 1335000000,	55.80,	8.02
 1336000000,	55.80,	7.89
 1337000000,	55.80,	7.88
 1338000000,	55.80,	7.93
 1339000000,	55.80,	7.85
 1340000000,	55.79,	7.93
 1341000000,	55.79,	7.97
 1342000000,	55.78,	8.04
 1343000000,	55.78,	7.99
 1344000000,	55.78,	7.86
 1345000000,	55.78,	7.96
 1346000000,	55.78,	7.97
 1347000000,	55.79,	7.86
 1348000000,	55.79,	7.95
 1349000000,	55.79,	7.92
 1350000000,	55.80,	7.81
 1351000000,	55.81,	7.96
 1352000000,	55.81,	7.99
 1353000000,	55.82,	7.83
 1354000000,	55.82,	7.84
 1355000000,	55.83,	8.01
 1356000000,	55.83,	7.95
 1357000000,	55.84,	7.62
 1358000000,	55.84,	7.82
 1359000000,	55.84,	7.74
 1360000000,	55.85,	7.76
 1361000000,	55.86,	7.74
 1362000000,	55.86,	7.71
 1363000000,	55.87,	7.75
 1364000000,	55.87,	7.65
 1365000000,	55.88,	7.85
 1366000000,	55.88,	7.79
 1367000000,	55.89,	7.77
 1368000000,	55.89,	7.83
 1369000000,	55.89,	7.74
 1370000000,	55.90,	8.00
 1371000000,	55.90,	7.53
 1372000000,	55.91,	7.86
 1373000000,	55.91,	7.75
 1374000000,	55.91,	7.74
 1375000000,	55.91,	7.84
 1376000000,	55.92,	7.72
 1377000000,	55.92,	7.85
 1378000000,	55.92,	7.87
 1379000000,	55.92,	7.71
 1380000000,	55.93,	7.73
 1381000000,	55.93,	7.79
 1382000000,	55.93,	7.71
 1383000000,	55.93,	7.76
 1384000000,	55.93,	7.85
 1385000000,	55.94,	7.77
 1386000000,	55.94,	7.90
 1387000000,	55.94,	7.90
 1388000000,	55.95,	7.78
 1389000000,	55.95,	7.92
 1390000000,	55.95,	7.92
 1391000000,	55.95,	7.83
 1392000000,	55.95,	7.93
 1393000000,	55.96,	7.79
 1394000000,	55.95,	8.01
 1395000000,	55.95,	7.90
 1396000000,	55.95,	7.89
 1397000000,	55.95,	7.82
 1398000000,	55.95,	8.02
 1399000000,	55.95,	7.89
 1400000000,	55.96,	7.91
 1401000000,	55.95,	8.03
 1402000000,	55.95,	7.97
 1403000000,	55.95,	7.92
 1404000000,	55.95,	8.00
 1405000000,	55.94,	8.06
 1406000000,	55.94,	8.03
 1407000000,	55.93,	8.06
 1408000000,	55.92,	8.14
 1409000000,	55.91,	7.94
 1410000000,	55.89,	7.83
 1411000000,	55.88,	8.03
 1412000000,	55.87,	7.95
 1413000000,	55.86,	7.99
 1414000000,	55.85,	8.03
 1415000000,	55.84,	7.93
 1416000000,	55.83,	7.94
 1417000000,	55.82,	8.09
 1418000000,	55.81,	8.28
 1419000000,	55.80,	8.01
 1420000000,	55.79,	8.20
 1421000000,	55.77,	8.23
 1422000000,	55.76,	8.16
 1423000000,	55.75,	8.32
 1424000000,	55.74,	8.18
 1425000000,	55.72,	8.26
 1426000000,	55.72,	8.37
 1427000000,	55.70,	8.46
 1428000000,	55.69,	8.37
 1429000000,	55.68,	8.54
 1430000000,	55.67,	8.61
 1431000000,	55.65,	8.54
 1432000000,	55.64,	8.61
 1433000000,	55.63,	8.61
 1434000000,	55.62,	8.63
 1435000000,	55.61,	8.72
 1436000000,	55.59,	8.66
 1437000000,	55.58,	8.93
 1438000000,	55.57,	8.95
 1439000000,	55.55,	9.10
 1440000000,	55.54,	9.15
 1441000000,	55.53,	9.09
 1442000000,	55.52,	8.96
 1443000000,	55.51,	9.26
 1444000000,	55.51,	9.15
 1445000000,	55.51,	9.30
 1446000000,	55.50,	9.27
 1447000000,	55.50,	9.27
 1448000000,	55.50,	9.19
 1449000000,	55.49,	9.11
 1450000000,	55.49,	9.04
 1451000000,	55.49,	8.98
 1452000000,	55.48,	9.07
 1453000000,	55.48,	8.91
 1454000000,	55.47,	8.88
 1455000000,	55.47,	8.77
 1456000000,	55.46,	8.64
 1457000000,	55.46,	8.66
 1458000000,	55.45,	8.66
 1459000000,	55.45,	8.67
 1460000000,	55.44,	8.75
 1461000000,	55.43,	8.46
 1462000000,	55.42,	8.71
 1463000000,	55.42,	8.67
 1464000000,	55.41,	8.50
 1465000000,	55.40,	8.41
 1466000000,	55.40,	8.67
 1467000000,	55.39,	8.65
 1468000000,	55.39,	8.57
 1469000000,	55.38,	8.87
 1470000000,	55.37,	8.54
 1471000000,	55.37,	8.59
 1472000000,	55.36,	8.60
 1473000000,	55.36,	8.61
 1474000000,	55.35,	8.58
 1475000000,	55.35,	8.59
 1476000000,	55.34,	8.60
 1477000000,	55.34,	8.65
 1478000000,	55.34,	8.70
 1479000000,	55.34,	8.61
 1480000000,	55.34,	8.64
 1481000000,	55.34,	8.62
 1482000000,	55.34,	8.47
 1483000000,	55.34,	8.55
 1484000000,	55.34,	8.42
 1485000000,	55.33,	8.41
 1486000000,	55.34,	8.56
 1487000000,	55.33,	8.75
 1488000000,	55.33,	8.50
 1489000000,	55.34,	8.49
 1490000000,	55.34,	8.48
 1491000000,	55.34,	8.62
 1492000000,	55.34,	8.50
 1493000000,	55.34,	8.60
 1494000000,	55.35,	8.41
 1495000000,	55.35,	8.37
 1496000000,	55.36,	8.41
 1497000000,	55.36,	8.31
 1498000000,	55.37,	8.37
 1499000000,	55.37,	8.39
 1500000000,	55.38,	8.45
 1501000000,	55.38,	8.48
 1502000000,	55.39,	8.36
 1503000000,	55.39,	8.14
 1504000000,	55.40,	8.27
 1505000000,	55.41,	8.47
 1506000000,	55.41,	8.24
 1507000000,	55.42,	8.16
 1508000000,	55.43,	8.21
 1509000000,	55.43,	7.93
 1510000000,	55.44,	8.31
 1511000000,	55.44,	8.20
 1512000000,	55.45,	8.23
 1513000000,	55.45,	8.15
 1514000000,	55.46,	7.99
 1515000000,	55.47,	8.08
 1516000000,	55.47,	8.10
 1517000000,	55.48,	8.01
 1518000000,	55.48,	8.18
 1519000000,	55.48,	7.92
 1520000000,	55.49,	8.19
 1521000000,	55.49,	8.10
 1522000000,	55.50,	8.09
 1523000000,	55.50,	8.05
 1524000000,	55.50,	8.03
 1525000000,	55.51,	8.04
 1526000000,	55.51,	7.94
 1527000000,	55.51,	7.90
 1528000000,	55.52,	7.95
 1529000000,	55.52,	7.97
 1530000000,	55.52,	7.86
 1531000000,	55.52,	7.95
 1532000000,	55.53,	7.93
 1533000000,	55.53,	7.99
 1534000000,	55.53,	8.07
 1535000000,	55.53,	7.72
 1536000000,	55.53,	7.70
 1537000000,	55.53,	7.95
 1538000000,	55.54,	7.82
 1539000000,	55.54,	7.79
 1540000000,	55.53,	7.92
 1541000000,	55.54,	7.79
 1542000000,	55.54,	7.81
 1543000000,	55.54,	7.98
 1544000000,	55.54,	7.84
 1545000000,	55.54,	7.68
 1546000000,	55.53,	7.85
 1547000000,	55.53,	7.79
 1548000000,	55.53,	7.82
 1549000000,	55.53,	7.89
 1550000000,	55.52,	7.85
 1551000000,	55.52,	7.87
 1552000000,	55.51,	7.78
 1553000000,	55.51,	7.92
 1554000000,	55.50,	7.91
 1555000000,	55.49,	8.04
 1556000000,	55.49,	7.92
 1557000000,	55.48,	7.75
 1558000000,	55.48,	7.84
 1559000000,	55.47,	7.83
 1560000000,	55.46,	7.89
 1561000000,	55.45,	8.01
 1562000000,	55.45,	7.84
 1563000000,	55.44,	8.09
 1564000000,	55.43,	8.05
 1565000000,	55.42,	8.04
 1566000000,	55.42,	7.98
 1567000000,	55.41,	7.88
 1568000000,	55.40,	7.83
 1569000000,	55.39,	7.88
 1570000000,	55.38,	8.03
 1571000000,	55.37,	7.95
 1572000000,	55.36,	8.08
 1573000000,	55.36,	8.01
 1574000000,	55.35,	8.13
 1575000000,	55.34,	8.23
 1576000000,	55.33,	8.06
 1577000000,	55.32,	8.06
 1578000000,	55.31,	8.13
 1579000000,	55.30,	8.23
 1580000000,	55.29,	8.26
 1581000000,	55.28,	8.19
 1582000000,	55.27,	8.24
 1583000000,	55.26,	8.21
 1584000000,	55.25,	8.20
 1585000000,	55.24,	8.47
 1586000000,	55.23,	8.27
 1587000000,	55.22,	8.32
 1588000000,	55.21,	8.41
 1589000000,	55.20,	8.40
 1590000000,	55.18,	8.23
 1591000000,	55.17,	8.33
 1592000000,	55.16,	8.37
 1593000000,	55.15,	8.42
 1594000000,	55.14,	8.36
 1595000000,	55.13,	8.43
 1596000000,	55.12,	8.41
 1597000000,	55.11,	8.48
 1598000000,	55.10,	8.39
 1599000000,	55.09,	8.56
 1600000000,	55.08,	8.54
 1601000000,	55.06,	8.46
 1602000000,	55.05,	8.46
 1603000000,	55.04,	8.43
 1604000000,	55.03,	8.56
 1605000000,	55.02,	8.49
 1606000000,	55.01,	8.47
 1607000000,	55.00,	8.38
 1608000000,	54.99,	8.48
 1609000000,	54.98,	8.59
 1610000000,	54.97,	8.70
 1611000000,	54.96,	8.51
 1612000000,	54.95,	8.47
 1613000000,	54.94,	8.34
 1614000000,	54.93,	8.58
 1615000000,	54.92,	8.36
 1616000000,	54.91,	8.64
 1617000000,	54.91,	8.51
 1618000000,	54.90,	8.51
 1619000000,	54.89,	8.50
 1620000000,	54.88,	8.57
 1621000000,	54.87,	8.56
 1622000000,	54.86,	8.40
 1623000000,	54.85,	8.64
 1624000000,	54.84,	8.49
 1625000000,	54.84,	8.48
 1626000000,	54.83,	8.50
 1627000000,	54.82,	8.58
 1628000000,	54.82,	8.52
 1629000000,	54.81,	8.42
 1630000000,	54.81,	8.53
 1631000000,	54.80,	8.47
 1632000000,	54.79,	8.48
 1633000000,	54.79,	8.42
 1634000000,	54.78,	8.46
 1635000000,	54.78,	8.43
 1636000000,	54.77,	8.62
 1637000000,	54.77,	8.39
 1638000000,	54.76,	8.44
 1639000000,	54.76,	8.44
 1640000000,	54.75,	8.39
 1641000000,	54.75,	8.45
 1642000000,	54.74,	8.44
 1643000000,	54.74,	8.53
 1644000000,	54.73,	8.32
 1645000000,	54.73,	8.30
 1646000000,	54.72,	8.30
 1647000000,	54.72,	8.27
 1648000000,	54.72,	8.50
 1649000000,	54.71,	8.56
 1650000000,	54.71,	8.56
 1651000000,	54.71,	8.54
 1652000000,	54.70,	8.60
 1653000000,	54.70,	8.63
 1654000000,	54.70,	8.61
 1655000000,	54.69,	8.66
 1656000000,	54.69,	8.70
 1657000000,	54.69,	8.58
 1658000000,	54.68,	8.51
 1659000000,	54.68,	8.64
 1660000000,	54.67,	8.67
 1661000000,	54.67,	8.73
 1662000000,	54.67,	8.71
 1663000000,	54.66,	8.83
 1664000000,	54.66,	8.77
 1665000000,	54.66,	8.85
 1666000000,	54.65,	8.89
 1667000000,	54.65,	8.93
 1668000000,	54.65,	9.07
 1669000000,	54.64,	9.22
 1670000000,	54.64,	9.31
