% f (Hz),G_rec (dB),T_e_rec (K)
  580000000,	55.33,	5.05
  581000000,	55.32,	5.09
  582000000,	55.31,	5.12
  583000000,	55.30,	5.01
  584000000,	55.29,	5.05
  585000000,	55.29,	4.99
  586000000,	55.28,	5.04
  587000000,	55.27,	5.02
  588000000,	55.26,	5.06
  589000000,	55.25,	5.11
  590000000,	55.24,	5.12
  591000000,	55.23,	5.02
  592000000,	55.22,	5.09
  593000000,	55.22,	5.07
  594000000,	55.21,	4.97
  595000000,	55.20,	4.99
  596000000,	55.19,	5.06
  597000000,	55.18,	5.00
  598000000,	55.17,	4.98
  599000000,	55.16,	4.98
  600000000,	55.16,	5.02
  601000000,	55.15,	5.06
  602000000,	55.14,	5.02
  603000000,	55.13,	4.95
  604000000,	55.12,	4.93
  605000000,	55.11,	4.97
  606000000,	55.11,	4.98
  607000000,	55.10,	4.87
  608000000,	55.09,	4.97
  609000000,	55.09,	4.81
  610000000,	55.08,	4.97
  611000000,	55.07,	5.02
  612000000,	55.07,	4.85
  613000000,	55.06,	4.91
  614000000,	55.05,	4.87
  615000000,	55.05,	4.82
  616000000,	55.04,	4.83
  617000000,	55.04,	4.79
  618000000,	55.03,	4.93
  619000000,	55.03,	4.90
  620000000,	55.02,	4.88
  621000000,	55.02,	4.76
  622000000,	55.01,	4.88
  623000000,	55.01,	4.86
  624000000,	55.01,	4.89
  625000000,	55.01,	5.00
  626000000,	55.00,	4.86
  627000000,	55.00,	4.92
  628000000,	54.99,	4.81
  629000000,	54.99,	4.85
  630000000,	54.98,	4.82
  631000000,	54.98,	4.87
  632000000,	54.98,	4.82
  633000000,	54.97,	4.78
  634000000,	54.96,	4.77
  635000000,	54.96,	4.76
  636000000,	54.95,	4.87
  637000000,	54.94,	4.80
  638000000,	54.93,	4.77
  639000000,	54.92,	4.78
  640000000,	54.91,	4.78
  641000000,	54.90,	4.85
  642000000,	54.89,	4.75
  643000000,	54.89,	4.82
  644000000,	54.88,	4.74
  645000000,	54.87,	4.87
  646000000,	54.86,	4.75
  647000000,	54.85,	4.83
  648000000,	54.84,	4.78
  649000000,	54.84,	4.83
  650000000,	54.83,	4.79
  651000000,	54.82,	4.78
  652000000,	54.81,	4.69
  653000000,	54.80,	4.70
  654000000,	54.79,	4.72
  655000000,	54.78,	4.75
  656000000,	54.77,	4.75
  657000000,	54.77,	4.80
  658000000,	54.76,	4.72
  659000000,	54.75,	4.74
  660000000,	54.74,	4.78
  661000000,	54.73,	4.74
  662000000,	54.73,	4.81
  663000000,	54.72,	4.82
  664000000,	54.71,	4.74
  665000000,	54.70,	4.88
  666000000,	54.70,	4.74
  667000000,	54.69,	4.83
  668000000,	54.69,	4.84
  669000000,	54.68,	4.78
  670000000,	54.68,	4.81
  671000000,	54.67,	4.79
  672000000,	54.67,	4.81
  673000000,	54.66,	4.88
  674000000,	54.66,	4.92
  675000000,	54.66,	4.85
  676000000,	54.65,	4.87
  677000000,	54.65,	4.81
  678000000,	54.65,	4.89
  679000000,	54.65,	4.77
  680000000,	54.65,	4.98
  681000000,	54.65,	5.00
  682000000,	54.64,	4.95
  683000000,	54.65,	4.86
  684000000,	54.64,	4.93
  685000000,	54.64,	4.94
  686000000,	54.65,	4.98
  687000000,	54.65,	4.98
  688000000,	54.65,	5.01
  689000000,	54.65,	4.98
  690000000,	54.64,	4.98
  691000000,	54.65,	4.89
  692000000,	54.65,	4.97
  693000000,	54.65,	5.08
  694000000,	54.65,	4.91
  695000000,	54.64,	5.10
  696000000,	54.65,	5.07
  697000000,	54.64,	5.00
  698000000,	54.64,	4.99
  699000000,	54.64,	5.13
  700000000,	54.64,	4.98
  701000000,	54.63,	5.11
  702000000,	54.63,	5.17
  703000000,	54.63,	5.05
  704000000,	54.62,	5.01
  705000000,	54.62,	5.07
  706000000,	54.61,	4.91
  707000000,	54.61,	5.13
  708000000,	54.60,	5.09
  709000000,	54.60,	5.09
  710000000,	54.59,	5.20
  711000000,	54.58,	5.05
  712000000,	54.57,	5.05
  713000000,	54.57,	5.12
  714000000,	54.56,	5.12
  715000000,	54.54,	5.08
  716000000,	54.54,	5.18
  717000000,	54.53,	5.16
  718000000,	54.52,	5.12
  719000000,	54.50,	5.20
  720000000,	54.49,	5.12
  721000000,	54.48,	5.26
  722000000,	54.47,	5.32
  723000000,	54.46,	5.22
  724000000,	54.44,	5.27
  725000000,	54.43,	5.26
  726000000,	54.42,	5.13
  727000000,	54.41,	5.36
  728000000,	54.40,	5.28
  729000000,	54.39,	5.30
  730000000,	54.37,	5.30
  731000000,	54.36,	5.31
  732000000,	54.35,	5.39
  733000000,	54.34,	5.40
  734000000,	54.33,	5.39
  735000000,	54.32,	5.36
  736000000,	54.31,	5.38
  737000000,	54.30,	5.47
  738000000,	54.29,	5.51
  739000000,	54.28,	5.53
  740000000,	54.28,	5.55
  741000000,	54.27,	5.46
  742000000,	54.26,	5.51
  743000000,	54.26,	5.50
  744000000,	54.25,	5.63
  745000000,	54.25,	5.62
  746000000,	54.24,	5.72
  747000000,	54.24,	5.72
  748000000,	54.24,	5.67
  749000000,	54.23,	5.75
  750000000,	54.23,	5.79
  751000000,	54.23,	5.65
  752000000,	54.23,	5.83
  753000000,	54.23,	5.76
  754000000,	54.24,	5.89
  755000000,	54.24,	5.79
  756000000,	54.24,	5.83
  757000000,	54.25,	5.86
  758000000,	54.26,	5.78
  759000000,	54.26,	5.83
  760000000,	54.27,	5.78
  761000000,	54.28,	5.75
  762000000,	54.29,	5.69
  763000000,	54.30,	5.72
  764000000,	54.32,	5.90
  765000000,	54.33,	5.90
  766000000,	54.34,	5.81
  767000000,	54.35,	5.69
  768000000,	54.37,	5.76
  769000000,	54.38,	5.75
  770000000,	54.39,	5.55
  771000000,	54.41,	5.69
  772000000,	54.42,	5.65
  773000000,	54.44,	5.67
  774000000,	54.45,	5.58
  775000000,	54.46,	5.53
  776000000,	54.48,	5.60
  777000000,	54.49,	5.57
  778000000,	54.51,	5.58
  779000000,	54.52,	5.58
  780000000,	54.53,	5.53
  781000000,	54.55,	5.43
  782000000,	54.56,	5.54
  783000000,	54.58,	5.53
  784000000,	54.59,	5.44
  785000000,	54.60,	5.41
  786000000,	54.61,	5.44
  787000000,	54.62,	5.41
  788000000,	54.63,	5.38
  789000000,	54.64,	5.33
  790000000,	54.65,	5.40
  791000000,	54.65,	5.34
  792000000,	54.66,	5.35
  793000000,	54.66,	5.48
  794000000,	54.67,	5.40
  795000000,	54.67,	5.28
  796000000,	54.67,	5.23
  797000000,	54.67,	5.47
  798000000,	54.67,	5.37
  799000000,	54.67,	5.36
  800000000,	54.67,	5.36
  801000000,	54.67,	5.38
  802000000,	54.66,	5.35
  803000000,	54.66,	5.37
  804000000,	54.65,	5.33
  805000000,	54.65,	5.30
  806000000,	54.64,	5.31
  807000000,	54.63,	5.42
  808000000,	54.63,	5.41
  809000000,	54.62,	5.36
  810000000,	54.60,	5.41
  811000000,	54.59,	5.41
  812000000,	54.58,	5.55
  813000000,	54.57,	5.55
  814000000,	54.56,	5.51
  815000000,	54.54,	5.58
  816000000,	54.53,	5.61
  817000000,	54.51,	5.64
  818000000,	54.50,	5.74
  819000000,	54.49,	5.70
  820000000,	54.47,	5.61
  821000000,	54.46,	5.70
  822000000,	54.44,	5.78
  823000000,	54.42,	5.90
  824000000,	54.41,	5.96
  825000000,	54.39,	5.80
  826000000,	54.38,	5.89
  827000000,	54.36,	5.96
  828000000,	54.35,	5.95
  829000000,	54.34,	6.04
  830000000,	54.33,	6.07
  831000000,	54.31,	6.08
  832000000,	54.30,	6.13
  833000000,	54.29,	6.05
  834000000,	54.28,	6.16
  835000000,	54.28,	6.19
  836000000,	54.27,	6.25
  837000000,	54.26,	6.16
  838000000,	54.25,	6.30
  839000000,	54.25,	6.30
  840000000,	54.24,	6.31
  841000000,	54.24,	6.38
  842000000,	54.23,	6.39
  843000000,	54.23,	6.39
  844000000,	54.23,	6.43
  845000000,	54.23,	6.35
  846000000,	54.23,	6.45
  847000000,	54.23,	6.48
  848000000,	54.24,	6.48
  849000000,	54.24,	6.36
  850000000,	54.25,	6.40
  851000000,	54.25,	6.35
  852000000,	54.26,	6.41
  853000000,	54.27,	6.27
  854000000,	54.27,	6.38
  855000000,	54.28,	6.18
  856000000,	54.29,	6.34
  857000000,	54.31,	6.38
  858000000,	54.32,	6.25
  859000000,	54.33,	6.25
  860000000,	54.35,	6.30
  861000000,	54.36,	6.22
  862000000,	54.38,	6.17
  863000000,	54.39,	6.13
  864000000,	54.41,	6.19
  865000000,	54.43,	6.12
  866000000,	54.45,	6.08
  867000000,	54.46,	6.06
  868000000,	54.48,	6.11
  869000000,	54.50,	5.95
  870000000,	54.52,	5.91
  871000000,	54.54,	6.06
  872000000,	54.56,	5.91
  873000000,	54.58,	5.83
  874000000,	54.60,	5.97
  875000000,	54.61,	5.81
  876000000,	54.63,	5.85
  877000000,	54.65,	5.76
  878000000,	54.67,	5.75
  879000000,	54.69,	5.70
  880000000,	54.71,	5.81
  881000000,	54.73,	5.68
  882000000,	54.74,	5.75
  883000000,	54.76,	5.72
  884000000,	54.77,	5.66
  885000000,	54.79,	5.74
  886000000,	54.80,	5.72
  887000000,	54.81,	5.70
  888000000,	54.82,	5.79
  889000000,	54.83,	5.62
  890000000,	54.84,	5.71
  891000000,	54.84,	5.74
  892000000,	54.85,	5.70
  893000000,	54.85,	5.60
  894000000,	54.85,	5.98
  895000000,	54.85,	5.90
  896000000,	54.85,	5.91
  897000000,	54.85,	5.96
  898000000,	54.85,	5.97
  899000000,	54.84,	6.00
  900000000,	54.84,	6.10
  901000000,	54.83,	6.26
  902000000,	54.82,	6.23
  903000000,	54.81,	6.32
  904000000,	54.80,	6.33
  905000000,	54.79,	6.44
  906000000,	54.78,	6.49
  907000000,	54.76,	6.66
  908000000,	54.75,	6.77
  909000000,	54.73,	6.87
  910000000,	54.71,	6.76
  911000000,	54.70,	6.73
  912000000,	54.68,	6.79
  913000000,	54.67,	6.77
  914000000,	54.66,	6.60
  915000000,	54.65,	6.56
  916000000,	54.64,	6.62
  917000000,	54.63,	6.65
  918000000,	54.62,	6.57
  919000000,	54.60,	6.64
  920000000,	54.59,	6.65
  921000000,	54.58,	6.59
  922000000,	54.57,	6.59
  923000000,	54.56,	6.58
  924000000,	54.55,	6.74
  925000000,	54.53,	6.69
  926000000,	54.52,	6.71
  927000000,	54.51,	6.69
  928000000,	54.50,	6.85
  929000000,	54.49,	6.64
  930000000,	54.48,	6.65
  931000000,	54.47,	6.69
  932000000,	54.46,	6.69
  933000000,	54.45,	6.74
  934000000,	54.44,	6.78
  935000000,	54.43,	6.77
  936000000,	54.43,	6.76
  937000000,	54.42,	6.82
  938000000,	54.41,	6.89
  939000000,	54.41,	6.82
  940000000,	54.41,	6.98
  941000000,	54.41,	6.96
  942000000,	54.41,	6.82
  943000000,	54.41,	6.94
  944000000,	54.41,	7.02
  945000000,	54.41,	6.92
  946000000,	54.42,	6.85
  947000000,	54.42,	7.15
  948000000,	54.43,	7.11
  949000000,	54.44,	7.01
  950000000,	54.44,	7.10
  951000000,	54.45,	7.11
  952000000,	54.47,	7.08
  953000000,	54.48,	7.15
  954000000,	54.49,	7.18
  955000000,	54.50,	7.22
  956000000,	54.52,	7.20
  957000000,	54.53,	7.20
  958000000,	54.55,	7.33
  959000000,	54.57,	7.27
  960000000,	54.59,	7.18
  961000000,	54.61,	7.12
  962000000,	54.63,	7.22
  963000000,	54.64,	7.14
  964000000,	54.66,	7.17
  965000000,	54.69,	7.08
  966000000,	54.71,	7.14
  967000000,	54.73,	7.12
  968000000,	54.75,	7.02
  969000000,	54.77,	7.17
  970000000,	54.79,	7.06
  971000000,	54.81,	7.00
  972000000,	54.83,	7.04
  973000000,	54.85,	6.97
  974000000,	54.87,	7.06
  975000000,	54.89,	6.93
  976000000,	54.91,	6.91
  977000000,	54.93,	6.95
  978000000,	54.95,	7.02
  979000000,	54.97,	6.95
  980000000,	54.98,	6.84
  981000000,	55.00,	6.94
  982000000,	55.01,	6.95
  983000000,	55.03,	7.00
  984000000,	55.04,	6.73
  985000000,	55.05,	6.95
  986000000,	55.06,	6.83
  987000000,	55.08,	6.83
  988000000,	55.09,	7.04
  989000000,	55.09,	6.93
  990000000,	55.10,	6.89
  991000000,	55.11,	6.86
  992000000,	55.11,	6.92
  993000000,	55.12,	6.98
  994000000,	55.12,	6.88
  995000000,	55.12,	6.94
  996000000,	55.13,	6.88
  997000000,	55.13,	6.89
  998000000,	55.13,	6.94
  999000000,	55.13,	6.87
 1000000000,	55.13,	6.92
 1001000000,	55.13,	7.02
 1002000000,	55.13,	7.02
 1003000000,	55.13,	6.88
 1004000000,	55.13,	6.93
 1005000000,	55.13,	6.96
 1006000000,	55.13,	7.02
 1007000000,	55.13,	7.02
 1008000000,	55.13,	6.99
 1009000000,	55.12,	7.01
 1010000000,	55.12,	7.16
 1011000000,	55.12,	7.07
 1012000000,	55.12,	7.10
 1013000000,	55.12,	7.11
 1014000000,	55.12,	7.13
 1015000000,	55.13,	7.11
