% f (Hz),G_rec (dB),T_e_rec (K)
  900000000,	58.24,	5.93
  901000000,	58.22,	5.88
  902000000,	58.20,	5.84
  903000000,	58.17,	5.81
  904000000,	58.15,	5.97
  905000000,	58.13,	5.83
  906000000,	58.12,	5.75
  907000000,	58.11,	5.80
  908000000,	58.11,	5.84
  909000000,	58.11,	5.75
  910000000,	58.10,	5.76
  911000000,	58.10,	5.73
  912000000,	58.09,	5.98
  913000000,	58.09,	5.74
  914000000,	58.08,	5.88
  915000000,	58.08,	5.88
  916000000,	58.07,	5.63
  917000000,	58.06,	5.85
  918000000,	58.05,	5.68
  919000000,	58.04,	5.75
  920000000,	58.03,	5.71
  921000000,	58.02,	5.71
  922000000,	58.01,	5.78
  923000000,	57.99,	5.72
  924000000,	57.98,	5.72
  925000000,	57.97,	5.68
  926000000,	57.96,	5.74
  927000000,	57.94,	5.75
  928000000,	57.93,	5.81
  929000000,	57.91,	5.77
  930000000,	57.90,	5.77
  931000000,	57.89,	5.65
  932000000,	57.87,	5.70
  933000000,	57.85,	5.65
  934000000,	57.84,	5.74
  935000000,	57.82,	5.57
  936000000,	57.81,	5.79
  937000000,	57.79,	5.76
  938000000,	57.77,	5.73
  939000000,	57.76,	5.82
  940000000,	57.74,	5.74
  941000000,	57.72,	5.82
  942000000,	57.71,	5.87
  943000000,	57.69,	5.84
  944000000,	57.67,	5.64
  945000000,	57.66,	5.82
  946000000,	57.64,	5.72
  947000000,	57.62,	5.78
  948000000,	57.61,	5.74
  949000000,	57.59,	5.66
  950000000,	57.57,	5.75
  951000000,	57.56,	5.70
  952000000,	57.54,	5.72
  953000000,	57.53,	5.83
  954000000,	57.51,	5.70
  955000000,	57.49,	5.79
  956000000,	57.48,	5.70
  957000000,	57.47,	5.80
  958000000,	57.46,	5.83
  959000000,	57.44,	5.63
  960000000,	57.43,	5.81
  961000000,	57.42,	5.65
  962000000,	57.41,	5.82
  963000000,	57.40,	5.68
  964000000,	57.39,	5.65
  965000000,	57.38,	5.83
  966000000,	57.37,	5.78
  967000000,	57.36,	5.79
  968000000,	57.35,	5.81
  969000000,	57.34,	5.71
  970000000,	57.33,	5.82
  971000000,	57.33,	5.81
  972000000,	57.33,	5.76
  973000000,	57.32,	5.66
  974000000,	57.32,	5.76
  975000000,	57.32,	5.72
  976000000,	57.32,	5.86
  977000000,	57.32,	5.87
  978000000,	57.32,	5.76
  979000000,	57.32,	5.92
  980000000,	57.32,	5.86
  981000000,	57.31,	5.56
  982000000,	57.31,	5.72
  983000000,	57.30,	5.73
  984000000,	57.30,	5.75
  985000000,	57.30,	5.74
  986000000,	57.30,	5.76
  987000000,	57.29,	5.76
  988000000,	57.29,	5.85
  989000000,	57.30,	5.84
  990000000,	57.30,	5.77
  991000000,	57.30,	5.89
  992000000,	57.31,	5.87
  993000000,	57.31,	5.93
  994000000,	57.32,	5.94
  995000000,	57.32,	5.73
  996000000,	57.33,	5.85
  997000000,	57.34,	5.96
  998000000,	57.35,	5.71
  999000000,	57.35,	6.00
 1000000000,	57.36,	5.77
 1001000000,	57.37,	5.91
 1002000000,	57.38,	5.90
 1003000000,	57.39,	6.15
 1004000000,	57.39,	5.85
 1005000000,	57.40,	5.89
 1006000000,	57.41,	5.98
 1007000000,	57.42,	5.88
 1008000000,	57.43,	5.93
 1009000000,	57.44,	6.15
 1010000000,	57.45,	6.14
 1011000000,	57.46,	6.09
 1012000000,	57.47,	6.00
 1013000000,	57.48,	5.98
 1014000000,	57.49,	6.17
 1015000000,	57.50,	6.07
 1016000000,	57.51,	6.09
 1017000000,	57.51,	6.08
 1018000000,	57.52,	6.29
 1019000000,	57.53,	6.06
 1020000000,	57.53,	6.17
 1021000000,	57.53,	6.16
 1022000000,	57.54,	6.18
 1023000000,	57.54,	6.09
 1024000000,	57.55,	6.14
 1025000000,	57.55,	6.23
 1026000000,	57.55,	6.15
 1027000000,	57.55,	6.15
 1028000000,	57.56,	6.19
 1029000000,	57.56,	6.35
 1030000000,	57.57,	6.16
 1031000000,	57.57,	6.20
 1032000000,	57.57,	6.21
 1033000000,	57.58,	6.40
 1034000000,	57.58,	6.23
 1035000000,	57.58,	6.42
 1036000000,	57.58,	6.29
 1037000000,	57.59,	6.22
 1038000000,	57.59,	6.45
 1039000000,	57.59,	6.19
 1040000000,	57.59,	6.33
 1041000000,	57.59,	6.42
 1042000000,	57.59,	6.42
 1043000000,	57.59,	6.40
 1044000000,	57.58,	6.27
 1045000000,	57.58,	6.20
 1046000000,	57.58,	6.51
 1047000000,	57.57,	6.32
 1048000000,	57.57,	6.48
 1049000000,	57.57,	6.36
 1050000000,	57.56,	6.33
 1051000000,	57.56,	6.42
 1052000000,	57.55,	6.44
 1053000000,	57.55,	6.43
 1054000000,	57.54,	6.43
 1055000000,	57.53,	6.38
 1056000000,	57.53,	6.31
 1057000000,	57.53,	6.45
 1058000000,	57.52,	6.52
 1059000000,	57.52,	6.51
 1060000000,	57.51,	6.59
 1061000000,	57.50,	6.63
 1062000000,	57.50,	6.50
 1063000000,	57.49,	6.50
 1064000000,	57.49,	6.55
 1065000000,	57.48,	6.60
 1066000000,	57.48,	6.52
 1067000000,	57.47,	6.58
 1068000000,	57.47,	6.43
 1069000000,	57.46,	6.52
 1070000000,	57.46,	6.57
 1071000000,	57.45,	6.51
 1072000000,	57.45,	6.54
 1073000000,	57.45,	6.43
 1074000000,	57.44,	6.54
 1075000000,	57.44,	6.52
 1076000000,	57.44,	6.55
 1077000000,	57.43,	6.56
 1078000000,	57.43,	6.58
 1079000000,	57.43,	6.71
 1080000000,	57.42,	6.40
 1081000000,	57.42,	6.73
 1082000000,	57.42,	6.64
 1083000000,	57.41,	6.64
 1084000000,	57.41,	6.64
 1085000000,	57.41,	6.60
 1086000000,	57.41,	6.73
 1087000000,	57.41,	6.55
 1088000000,	57.41,	6.52
 1089000000,	57.42,	6.63
 1090000000,	57.42,	6.68
 1091000000,	57.43,	6.73
 1092000000,	57.43,	6.63
 1093000000,	57.43,	6.59
 1094000000,	57.44,	6.60
 1095000000,	57.45,	6.60
 1096000000,	57.45,	6.68
 1097000000,	57.45,	6.63
 1098000000,	57.46,	6.60
 1099000000,	57.46,	6.61
 1100000000,	57.47,	6.73
 1101000000,	57.47,	6.60
 1102000000,	57.48,	6.72
 1103000000,	57.49,	6.74
 1104000000,	57.49,	6.57
 1105000000,	57.50,	6.66
 1106000000,	57.50,	6.55
 1107000000,	57.51,	6.73
 1108000000,	57.51,	6.64
 1109000000,	57.51,	6.76
 1110000000,	57.51,	6.62
 1111000000,	57.51,	6.63
 1112000000,	57.51,	6.80
 1113000000,	57.51,	6.79
 1114000000,	57.51,	6.67
 1115000000,	57.52,	6.74
 1116000000,	57.53,	6.67
 1117000000,	57.53,	6.63
 1118000000,	57.54,	6.63
 1119000000,	57.55,	6.72
 1120000000,	57.56,	6.63
 1121000000,	57.57,	6.68
 1122000000,	57.58,	6.74
 1123000000,	57.59,	6.70
 1124000000,	57.60,	6.54
 1125000000,	57.61,	6.84
 1126000000,	57.62,	6.68
 1127000000,	57.63,	6.72
 1128000000,	57.64,	6.62
 1129000000,	57.65,	6.68
 1130000000,	57.66,	6.58
 1131000000,	57.67,	6.77
 1132000000,	57.68,	6.74
 1133000000,	57.68,	6.60
 1134000000,	57.69,	6.67
 1135000000,	57.69,	6.72
 1136000000,	57.70,	6.61
 1137000000,	57.71,	6.54
 1138000000,	57.71,	6.87
 1139000000,	57.72,	6.70
 1140000000,	57.72,	6.74
 1141000000,	57.72,	6.70
 1142000000,	57.73,	6.76
 1143000000,	57.73,	6.80
 1144000000,	57.73,	6.80
 1145000000,	57.73,	6.79
 1146000000,	57.74,	6.67
 1147000000,	57.74,	6.95
 1148000000,	57.74,	6.85
 1149000000,	57.74,	6.90
 1150000000,	57.74,	6.72
 1151000000,	57.74,	6.60
 1152000000,	57.74,	6.72
 1153000000,	57.74,	6.82
 1154000000,	57.74,	6.85
 1155000000,	57.74,	6.79
 1156000000,	57.73,	6.67
 1157000000,	57.73,	6.83
 1158000000,	57.73,	6.85
 1159000000,	57.73,	6.79
 1160000000,	57.73,	6.80
 1161000000,	57.72,	6.89
 1162000000,	57.72,	6.75
 1163000000,	57.72,	6.79
 1164000000,	57.72,	6.76
 1165000000,	57.72,	6.71
 1166000000,	57.71,	6.79
 1167000000,	57.71,	6.86
 1168000000,	57.71,	6.69
 1169000000,	57.70,	6.78
 1170000000,	57.70,	6.70
 1171000000,	57.70,	6.80
 1172000000,	57.69,	6.98
 1173000000,	57.69,	6.85
 1174000000,	57.68,	6.82
 1175000000,	57.68,	6.99
 1176000000,	57.68,	6.73
 1177000000,	57.68,	6.93
 1178000000,	57.68,	6.78
 1179000000,	57.68,	6.79
 1180000000,	57.67,	6.78
 1181000000,	57.67,	6.97
 1182000000,	57.67,	6.85
 1183000000,	57.67,	7.00
 1184000000,	57.67,	6.73
 1185000000,	57.67,	6.95
 1186000000,	57.67,	6.81
 1187000000,	57.67,	6.87
 1188000000,	57.67,	6.82
 1189000000,	57.67,	6.73
 1190000000,	57.67,	6.82
 1191000000,	57.67,	6.80
 1192000000,	57.67,	6.91
 1193000000,	57.67,	6.91
 1194000000,	57.67,	6.88
 1195000000,	57.67,	6.88
 1196000000,	57.67,	6.91
 1197000000,	57.67,	6.79
 1198000000,	57.68,	6.81
 1199000000,	57.68,	6.78
 1200000000,	57.68,	6.89
 1201000000,	57.68,	6.88
 1202000000,	57.69,	6.81
 1203000000,	57.69,	6.94
 1204000000,	57.70,	6.95
 1205000000,	57.70,	7.00
 1206000000,	57.71,	6.90
 1207000000,	57.71,	6.87
 1208000000,	57.72,	6.90
 1209000000,	57.73,	6.81
 1210000000,	57.74,	7.01
 1211000000,	57.75,	6.91
 1212000000,	57.76,	6.76
 1213000000,	57.77,	6.92
 1214000000,	57.78,	6.95
 1215000000,	57.78,	7.03
 1216000000,	57.79,	6.86
 1217000000,	57.79,	6.88
 1218000000,	57.80,	7.02
 1219000000,	57.81,	6.80
 1220000000,	57.81,	6.90
 1221000000,	57.82,	6.79
 1222000000,	57.83,	6.89
 1223000000,	57.84,	6.97
 1224000000,	57.84,	6.89
 1225000000,	57.86,	6.86
 1226000000,	57.87,	6.83
 1227000000,	57.88,	6.79
 1228000000,	57.90,	6.83
 1229000000,	57.92,	6.83
 1230000000,	57.93,	6.86
 1231000000,	57.94,	6.95
 1232000000,	57.95,	6.86
 1233000000,	57.96,	6.73
 1234000000,	57.97,	6.98
 1235000000,	57.98,	7.05
 1236000000,	57.98,	6.74
 1237000000,	58.00,	6.84
 1238000000,	58.01,	6.88
 1239000000,	58.02,	6.83
 1240000000,	58.02,	6.88
 1241000000,	58.03,	6.84
 1242000000,	58.04,	6.84
 1243000000,	58.05,	6.98
 1244000000,	58.06,	6.96
 1245000000,	58.07,	6.87
 1246000000,	58.08,	6.86
 1247000000,	58.09,	6.91
 1248000000,	58.10,	6.92
 1249000000,	58.11,	6.83
 1250000000,	58.12,	6.99
 1251000000,	58.13,	7.02
 1252000000,	58.13,	6.91
 1253000000,	58.15,	7.13
 1254000000,	58.15,	7.01
 1255000000,	58.16,	7.01
 1256000000,	58.17,	6.94
 1257000000,	58.17,	7.11
 1258000000,	58.18,	6.99
 1259000000,	58.18,	7.09
 1260000000,	58.19,	7.23
 1261000000,	58.19,	6.99
 1262000000,	58.20,	6.96
 1263000000,	58.20,	7.01
 1264000000,	58.20,	6.96
 1265000000,	58.21,	7.27
 1266000000,	58.21,	7.14
 1267000000,	58.21,	7.02
 1268000000,	58.21,	7.10
 1269000000,	58.22,	7.24
 1270000000,	58.22,	7.09
 1271000000,	58.22,	7.15
 1272000000,	58.22,	7.13
 1273000000,	58.22,	7.10
 1274000000,	58.23,	7.26
 1275000000,	58.23,	7.24
 1276000000,	58.22,	7.39
 1277000000,	58.22,	7.32
 1278000000,	58.22,	7.29
 1279000000,	58.22,	7.24
 1280000000,	58.22,	7.32
 1281000000,	58.22,	7.36
 1282000000,	58.22,	7.40
 1283000000,	58.22,	7.43
 1284000000,	58.22,	7.43
 1285000000,	58.21,	7.33
 1286000000,	58.21,	7.40
 1287000000,	58.21,	7.46
 1288000000,	58.20,	7.62
 1289000000,	58.20,	7.59
 1290000000,	58.19,	7.58
 1291000000,	58.19,	7.66
 1292000000,	58.18,	7.58
 1293000000,	58.18,	7.67
 1294000000,	58.17,	7.59
 1295000000,	58.17,	7.53
 1296000000,	58.16,	7.53
 1297000000,	58.16,	7.68
 1298000000,	58.16,	7.73
 1299000000,	58.16,	7.82
 1300000000,	58.15,	7.78
 1301000000,	58.15,	7.72
 1302000000,	58.14,	7.72
 1303000000,	58.14,	7.85
 1304000000,	58.14,	7.83
 1305000000,	58.13,	7.71
 1306000000,	58.13,	7.86
 1307000000,	58.13,	7.90
 1308000000,	58.12,	7.84
 1309000000,	58.12,	7.87
 1310000000,	58.11,	7.89
 1311000000,	58.11,	7.88
 1312000000,	58.11,	7.81
 1313000000,	58.10,	7.92
 1314000000,	58.10,	7.90
 1315000000,	58.09,	7.97
 1316000000,	58.09,	8.06
 1317000000,	58.08,	7.99
 1318000000,	58.08,	7.89
 1319000000,	58.08,	7.89
 1320000000,	58.07,	7.91
 1321000000,	58.07,	7.99
 1322000000,	58.07,	7.80
 1323000000,	58.06,	7.86
 1324000000,	58.06,	7.76
 1325000000,	58.06,	7.92
 1326000000,	58.05,	7.87
 1327000000,	58.05,	7.96
 1328000000,	58.05,	8.06
 1329000000,	58.04,	7.78
 1330000000,	58.05,	7.95
 1331000000,	58.04,	7.78
 1332000000,	58.04,	8.00
 1333000000,	58.04,	7.83
 1334000000,	58.04,	7.79
 1335000000,	58.04,	7.76
 1336000000,	58.05,	7.84
 1337000000,	58.05,	7.83
 1338000000,	58.05,	7.88
 1339000000,	58.06,	7.86
 1340000000,	58.06,	7.84
 1341000000,	58.06,	7.81
 1342000000,	58.07,	7.81
 1343000000,	58.07,	7.79
 1344000000,	58.08,	7.89
 1345000000,	58.08,	7.68
 1346000000,	58.09,	7.88
 1347000000,	58.10,	7.88
 1348000000,	58.10,	7.68
 1349000000,	58.11,	7.54
 1350000000,	58.12,	7.79
 1351000000,	58.12,	7.69
 1352000000,	58.13,	7.76
 1353000000,	58.13,	7.72
 1354000000,	58.13,	7.63
 1355000000,	58.13,	7.58
 1356000000,	58.13,	7.58
 1357000000,	58.12,	7.65
 1358000000,	58.12,	7.67
 1359000000,	58.12,	7.52
 1360000000,	58.11,	7.66
 1361000000,	58.11,	7.70
 1362000000,	58.12,	7.57
 1363000000,	58.12,	7.61
 1364000000,	58.12,	7.53
 1365000000,	58.13,	7.64
 1366000000,	58.13,	7.42
 1367000000,	58.14,	7.51
 1368000000,	58.15,	7.62
 1369000000,	58.15,	7.70
 1370000000,	58.16,	7.56
 1371000000,	58.17,	7.50
 1372000000,	58.18,	7.54
 1373000000,	58.19,	7.78
 1374000000,	58.20,	7.58
 1375000000,	58.20,	7.68
 1376000000,	58.21,	7.50
 1377000000,	58.21,	7.46
 1378000000,	58.22,	7.57
 1379000000,	58.23,	7.54
 1380000000,	58.23,	7.63
 1381000000,	58.23,	7.73
 1382000000,	58.24,	7.53
 1383000000,	58.24,	7.58
 1384000000,	58.24,	7.63
 1385000000,	58.25,	7.65
 1386000000,	58.25,	7.56
 1387000000,	58.25,	7.46
 1388000000,	58.25,	7.47
 1389000000,	58.25,	7.58
 1390000000,	58.25,	7.61
 1391000000,	58.25,	7.36
 1392000000,	58.25,	7.44
 1393000000,	58.25,	7.47
 1394000000,	58.25,	7.36
 1395000000,	58.25,	7.37
 1396000000,	58.25,	7.59
 1397000000,	58.25,	7.38
 1398000000,	58.24,	7.23
 1399000000,	58.24,	7.33
 1400000000,	58.23,	7.41
 1401000000,	58.23,	7.40
 1402000000,	58.23,	7.32
 1403000000,	58.23,	7.27
 1404000000,	58.23,	7.23
 1405000000,	58.24,	7.24
 1406000000,	58.24,	7.27
 1407000000,	58.25,	7.32
 1408000000,	58.25,	7.31
 1409000000,	58.25,	7.17
 1410000000,	58.25,	7.15
 1411000000,	58.26,	7.33
 1412000000,	58.25,	7.18
 1413000000,	58.25,	7.26
 1414000000,	58.24,	7.15
 1415000000,	58.23,	7.31
 1416000000,	58.22,	7.39
 1417000000,	58.21,	7.35
 1418000000,	58.20,	7.20
 1419000000,	58.19,	7.29
 1420000000,	58.18,	7.27
 1421000000,	58.16,	7.41
 1422000000,	58.15,	7.53
 1423000000,	58.14,	7.51
 1424000000,	58.13,	7.57
 1425000000,	58.12,	7.38
 1426000000,	58.11,	7.52
 1427000000,	58.10,	7.52
 1428000000,	58.10,	7.90
 1429000000,	58.09,	7.75
 1430000000,	58.09,	7.78
 1431000000,	58.08,	7.89
 1432000000,	58.08,	8.08
 1433000000,	58.07,	8.15
 1434000000,	58.07,	8.17
 1435000000,	58.07,	8.34
 1436000000,	58.06,	8.47
 1437000000,	58.05,	8.22
 1438000000,	58.04,	8.23
 1439000000,	58.04,	8.40
 1440000000,	58.03,	8.39
 1441000000,	58.02,	8.53
 1442000000,	58.01,	8.47
 1443000000,	58.01,	8.58
 1444000000,	58.00,	8.54
 1445000000,	58.00,	8.56
 1446000000,	57.99,	8.36
 1447000000,	57.99,	8.60
 1448000000,	57.99,	8.31
 1449000000,	57.98,	8.29
 1450000000,	57.98,	8.28
 1451000000,	57.98,	8.23
 1452000000,	57.98,	8.23
 1453000000,	57.97,	8.12
 1454000000,	57.97,	7.94
 1455000000,	57.97,	7.94
 1456000000,	57.97,	7.77
 1457000000,	57.96,	7.61
 1458000000,	57.96,	7.71
 1459000000,	57.96,	7.61
 1460000000,	57.96,	7.71
 1461000000,	57.96,	7.60
 1462000000,	57.95,	7.62
 1463000000,	57.95,	7.56
 1464000000,	57.95,	7.58
 1465000000,	57.94,	7.49
 1466000000,	57.94,	7.35
 1467000000,	57.94,	7.50
 1468000000,	57.93,	7.51
 1469000000,	57.92,	7.34
 1470000000,	57.92,	7.40
 1471000000,	57.91,	7.61
 1472000000,	57.91,	7.65
 1473000000,	57.90,	7.48
 1474000000,	57.90,	7.61
 1475000000,	57.90,	7.64
 1476000000,	57.90,	7.44
 1477000000,	57.90,	7.65
 1478000000,	57.89,	7.64
 1479000000,	57.89,	7.65
 1480000000,	57.90,	7.64
 1481000000,	57.90,	7.73
 1482000000,	57.90,	7.53
 1483000000,	57.90,	7.49
 1484000000,	57.90,	7.64
 1485000000,	57.91,	7.66
 1486000000,	57.91,	7.63
 1487000000,	57.92,	7.66
 1488000000,	57.92,	7.60
 1489000000,	57.93,	7.66
 1490000000,	57.93,	7.58
 1491000000,	57.93,	7.58
 1492000000,	57.94,	7.54
 1493000000,	57.95,	7.62
 1494000000,	57.95,	7.48
 1495000000,	57.96,	7.57
 1496000000,	57.97,	7.47
 1497000000,	57.97,	7.52
 1498000000,	57.98,	7.49
 1499000000,	57.99,	7.51
 1500000000,	57.99,	7.36
 1501000000,	58.00,	7.36
 1502000000,	58.00,	7.49
 1503000000,	58.01,	7.37
 1504000000,	58.01,	7.40
 1505000000,	58.02,	7.39
 1506000000,	58.02,	7.30
 1507000000,	58.03,	7.29
 1508000000,	58.03,	7.41
 1509000000,	58.03,	7.35
 1510000000,	58.04,	7.37
 1511000000,	58.04,	7.42
 1512000000,	58.04,	7.30
 1513000000,	58.05,	7.33
 1514000000,	58.05,	7.21
 1515000000,	58.06,	7.25
 1516000000,	58.06,	7.23
 1517000000,	58.06,	7.23
 1518000000,	58.06,	7.14
 1519000000,	58.07,	7.22
 1520000000,	58.07,	7.22
 1521000000,	58.07,	7.13
 1522000000,	58.08,	7.12
 1523000000,	58.08,	7.07
 1524000000,	58.08,	7.14
 1525000000,	58.08,	7.09
 1526000000,	58.08,	7.21
 1527000000,	58.09,	6.81
 1528000000,	58.09,	7.14
 1529000000,	58.09,	7.03
 1530000000,	58.09,	6.92
 1531000000,	58.09,	7.05
 1532000000,	58.09,	7.13
 1533000000,	58.09,	7.04
 1534000000,	58.09,	7.02
 1535000000,	58.09,	6.95
 1536000000,	58.09,	6.93
 1537000000,	58.09,	6.94
 1538000000,	58.09,	6.96
 1539000000,	58.09,	6.81
 1540000000,	58.09,	6.87
 1541000000,	58.08,	6.96
 1542000000,	58.08,	6.91
 1543000000,	58.08,	6.91
 1544000000,	58.08,	6.93
 1545000000,	58.07,	6.85
 1546000000,	58.07,	6.95
 1547000000,	58.07,	6.82
 1548000000,	58.06,	6.81
 1549000000,	58.06,	6.66
 1550000000,	58.05,	6.82
 1551000000,	58.05,	6.88
 1552000000,	58.04,	6.75
 1553000000,	58.04,	6.84
 1554000000,	58.03,	6.82
 1555000000,	58.03,	6.83
 1556000000,	58.02,	6.68
 1557000000,	58.02,	6.87
 1558000000,	58.01,	6.72
 1559000000,	58.00,	6.76
 1560000000,	58.00,	6.81
 1561000000,	57.99,	6.76
 1562000000,	57.99,	6.80
 1563000000,	57.98,	6.66
 1564000000,	57.97,	6.64
 1565000000,	57.97,	6.72
 1566000000,	57.96,	6.71
 1567000000,	57.95,	6.75
 1568000000,	57.94,	6.66
 1569000000,	57.93,	6.72
 1570000000,	57.92,	6.87
 1571000000,	57.91,	6.64
 1572000000,	57.90,	6.77
 1573000000,	57.89,	6.67
 1574000000,	57.88,	6.76
 1575000000,	57.87,	6.64
 1576000000,	57.86,	6.86
 1577000000,	57.85,	6.81
 1578000000,	57.84,	6.77
 1579000000,	57.83,	6.80
 1580000000,	57.83,	6.66
 1581000000,	57.82,	6.72
 1582000000,	57.81,	6.70
 1583000000,	57.81,	6.70
 1584000000,	57.80,	6.82
 1585000000,	57.79,	6.90
 1586000000,	57.78,	6.69
 1587000000,	57.77,	6.97
 1588000000,	57.76,	6.79
 1589000000,	57.75,	6.77
 1590000000,	57.74,	6.73
 1591000000,	57.73,	6.95
 1592000000,	57.72,	6.85
 1593000000,	57.71,	6.93
 1594000000,	57.70,	6.95
 1595000000,	57.68,	6.94
 1596000000,	57.67,	6.92
 1597000000,	57.66,	6.91
 1598000000,	57.64,	7.06
 1599000000,	57.63,	7.13
 1600000000,	57.62,	7.05
 1601000000,	57.60,	7.03
 1602000000,	57.59,	6.98
 1603000000,	57.57,	6.97
 1604000000,	57.56,	6.98
 1605000000,	57.55,	6.96
 1606000000,	57.53,	7.08
 1607000000,	57.52,	7.02
 1608000000,	57.51,	7.05
 1609000000,	57.50,	7.07
 1610000000,	57.49,	6.98
 1611000000,	57.48,	7.09
 1612000000,	57.47,	7.05
 1613000000,	57.47,	7.02
 1614000000,	57.46,	6.81
 1615000000,	57.45,	7.09
 1616000000,	57.44,	7.04
 1617000000,	57.43,	7.01
 1618000000,	57.43,	7.08
 1619000000,	57.42,	7.05
 1620000000,	57.41,	7.00
 1621000000,	57.40,	7.05
 1622000000,	57.39,	6.96
 1623000000,	57.38,	6.98
 1624000000,	57.37,	7.05
 1625000000,	57.37,	6.99
 1626000000,	57.36,	6.98
 1627000000,	57.35,	7.06
 1628000000,	57.35,	7.01
 1629000000,	57.34,	7.10
 1630000000,	57.34,	6.96
 1631000000,	57.33,	7.07
 1632000000,	57.33,	6.95
 1633000000,	57.33,	7.02
 1634000000,	57.32,	6.93
 1635000000,	57.32,	7.00
 1636000000,	57.32,	7.14
 1637000000,	57.31,	7.02
 1638000000,	57.31,	6.99
 1639000000,	57.30,	7.03
 1640000000,	57.29,	6.94
 1641000000,	57.29,	6.98
 1642000000,	57.28,	7.19
 1643000000,	57.28,	7.25
 1644000000,	57.27,	6.99
 1645000000,	57.26,	7.20
 1646000000,	57.26,	7.08
 1647000000,	57.25,	7.09
 1648000000,	57.24,	7.10
 1649000000,	57.24,	7.05
 1650000000,	57.24,	7.27
 1651000000,	57.23,	7.34
 1652000000,	57.23,	7.48
 1653000000,	57.23,	7.35
 1654000000,	57.23,	7.48
 1655000000,	57.23,	7.41
 1656000000,	57.23,	7.55
 1657000000,	57.23,	7.61
 1658000000,	57.24,	7.68
 1659000000,	57.24,	7.86
 1660000000,	57.24,	7.77
 1661000000,	57.24,	7.84
 1662000000,	57.25,	7.76
 1663000000,	57.25,	7.85
 1664000000,	57.25,	7.91
 1665000000,	57.25,	7.82
 1666000000,	57.25,	7.89
 1667000000,	57.25,	8.02
 1668000000,	57.24,	8.08
 1669000000,	57.24,	8.20
 1670000000,	57.23,	8.12
