% f (Hz),G_rec (dB),T_e_rec (K)
  900000000,	57.79,	6.42
  901000000,	57.78,	6.51
  902000000,	57.77,	6.36
  903000000,	57.76,	6.48
  904000000,	57.75,	6.36
  905000000,	57.73,	6.31
  906000000,	57.71,	6.22
  907000000,	57.69,	6.35
  908000000,	57.67,	6.37
  909000000,	57.65,	6.27
  910000000,	57.63,	6.32
  911000000,	57.62,	6.39
  912000000,	57.60,	6.29
  913000000,	57.58,	6.36
  914000000,	57.56,	6.33
  915000000,	57.54,	6.46
  916000000,	57.53,	6.37
  917000000,	57.51,	6.31
  918000000,	57.49,	6.34
  919000000,	57.47,	6.48
  920000000,	57.45,	6.31
  921000000,	57.43,	6.39
  922000000,	57.41,	6.52
  923000000,	57.39,	6.32
  924000000,	57.37,	6.31
  925000000,	57.35,	6.41
  926000000,	57.33,	6.42
  927000000,	57.31,	6.35
  928000000,	57.28,	6.45
  929000000,	57.26,	6.47
  930000000,	57.23,	6.33
  931000000,	57.20,	6.29
  932000000,	57.17,	6.40
  933000000,	57.14,	6.37
  934000000,	57.11,	6.40
  935000000,	57.09,	6.56
  936000000,	57.06,	6.46
  937000000,	57.04,	6.38
  938000000,	57.01,	6.52
  939000000,	56.99,	6.56
  940000000,	56.97,	6.54
  941000000,	56.95,	6.53
  942000000,	56.93,	6.42
  943000000,	56.90,	6.53
  944000000,	56.89,	6.58
  945000000,	56.87,	6.53
  946000000,	56.85,	6.59
  947000000,	56.83,	6.43
  948000000,	56.81,	6.63
  949000000,	56.79,	6.61
  950000000,	56.77,	6.47
  951000000,	56.76,	6.55
  952000000,	56.74,	6.48
  953000000,	56.72,	6.66
  954000000,	56.71,	6.61
  955000000,	56.69,	6.63
  956000000,	56.68,	6.53
  957000000,	56.67,	6.59
  958000000,	56.65,	6.60
  959000000,	56.64,	6.53
  960000000,	56.63,	6.55
  961000000,	56.62,	6.56
  962000000,	56.61,	6.64
  963000000,	56.60,	6.59
  964000000,	56.59,	6.57
  965000000,	56.58,	6.56
  966000000,	56.57,	6.66
  967000000,	56.56,	6.55
  968000000,	56.55,	6.75
  969000000,	56.55,	6.58
  970000000,	56.54,	6.63
  971000000,	56.54,	6.67
  972000000,	56.54,	6.65
  973000000,	56.54,	6.69
  974000000,	56.54,	6.71
  975000000,	56.54,	6.54
  976000000,	56.55,	6.59
  977000000,	56.55,	6.63
  978000000,	56.55,	6.66
  979000000,	56.56,	6.69
  980000000,	56.56,	6.67
  981000000,	56.57,	6.73
  982000000,	56.58,	6.73
  983000000,	56.58,	6.68
  984000000,	56.59,	6.68
  985000000,	56.60,	6.78
  986000000,	56.61,	6.83
  987000000,	56.62,	6.66
  988000000,	56.63,	6.65
  989000000,	56.64,	6.63
  990000000,	56.65,	6.76
  991000000,	56.67,	6.73
  992000000,	56.68,	6.86
  993000000,	56.69,	6.85
  994000000,	56.70,	6.74
  995000000,	56.71,	6.99
  996000000,	56.72,	6.74
  997000000,	56.74,	6.83
  998000000,	56.75,	6.76
  999000000,	56.77,	6.84
 1000000000,	56.78,	6.81
 1001000000,	56.80,	6.69
 1002000000,	56.81,	6.77
 1003000000,	56.82,	6.77
 1004000000,	56.84,	6.84
 1005000000,	56.85,	6.76
 1006000000,	56.86,	6.87
 1007000000,	56.87,	6.88
 1008000000,	56.88,	6.70
 1009000000,	56.89,	6.79
 1010000000,	56.89,	7.01
 1011000000,	56.90,	6.86
 1012000000,	56.90,	7.00
 1013000000,	56.91,	6.81
 1014000000,	56.92,	6.93
 1015000000,	56.92,	6.89
 1016000000,	56.93,	6.89
 1017000000,	56.94,	6.86
 1018000000,	56.94,	6.93
 1019000000,	56.95,	7.12
 1020000000,	56.95,	7.00
 1021000000,	56.96,	6.85
 1022000000,	56.96,	7.05
 1023000000,	56.97,	6.84
 1024000000,	56.97,	7.14
 1025000000,	56.98,	7.03
 1026000000,	56.98,	7.12
 1027000000,	56.98,	7.05
 1028000000,	56.98,	7.09
 1029000000,	56.98,	7.13
 1030000000,	56.98,	6.91
 1031000000,	56.97,	7.00
 1032000000,	56.97,	7.06
 1033000000,	56.97,	6.95
 1034000000,	56.97,	7.13
 1035000000,	56.96,	7.31
 1036000000,	56.96,	7.12
 1037000000,	56.95,	7.17
 1038000000,	56.95,	7.25
 1039000000,	56.94,	7.06
 1040000000,	56.93,	7.21
 1041000000,	56.93,	7.12
 1042000000,	56.92,	7.25
 1043000000,	56.91,	7.24
 1044000000,	56.90,	7.23
 1045000000,	56.89,	7.23
 1046000000,	56.88,	7.22
 1047000000,	56.87,	7.27
 1048000000,	56.86,	7.26
 1049000000,	56.85,	7.43
 1050000000,	56.84,	7.26
 1051000000,	56.83,	7.41
 1052000000,	56.82,	7.33
 1053000000,	56.80,	7.53
 1054000000,	56.80,	7.40
 1055000000,	56.80,	7.38
 1056000000,	56.79,	7.39
 1057000000,	56.79,	7.47
 1058000000,	56.78,	7.54
 1059000000,	56.78,	7.41
 1060000000,	56.77,	7.24
 1061000000,	56.77,	7.45
 1062000000,	56.76,	7.51
 1063000000,	56.75,	7.46
 1064000000,	56.75,	7.59
 1065000000,	56.74,	7.43
 1066000000,	56.74,	7.49
 1067000000,	56.74,	7.50
 1068000000,	56.73,	7.56
 1069000000,	56.72,	7.50
 1070000000,	56.72,	7.54
 1071000000,	56.72,	7.46
 1072000000,	56.72,	7.48
 1073000000,	56.71,	7.66
 1074000000,	56.71,	7.44
 1075000000,	56.71,	7.54
 1076000000,	56.71,	7.71
 1077000000,	56.70,	7.46
 1078000000,	56.70,	7.57
 1079000000,	56.70,	7.62
 1080000000,	56.70,	7.62
 1081000000,	56.70,	7.52
 1082000000,	56.69,	7.68
 1083000000,	56.69,	7.47
 1084000000,	56.69,	7.58
 1085000000,	56.70,	7.52
 1086000000,	56.70,	7.46
 1087000000,	56.70,	7.64
 1088000000,	56.71,	7.58
 1089000000,	56.72,	7.49
 1090000000,	56.73,	7.52
 1091000000,	56.73,	7.67
 1092000000,	56.74,	7.47
 1093000000,	56.75,	7.54
 1094000000,	56.76,	7.66
 1095000000,	56.77,	7.59
 1096000000,	56.77,	7.60
 1097000000,	56.78,	7.56
 1098000000,	56.79,	7.72
 1099000000,	56.80,	7.68
 1100000000,	56.81,	7.66
 1101000000,	56.82,	7.55
 1102000000,	56.83,	7.66
 1103000000,	56.84,	7.63
 1104000000,	56.85,	7.69
 1105000000,	56.86,	7.59
 1106000000,	56.87,	7.68
 1107000000,	56.88,	7.80
 1108000000,	56.88,	7.65
 1109000000,	56.88,	7.79
 1110000000,	56.88,	7.73
 1111000000,	56.88,	7.72
 1112000000,	56.89,	7.57
 1113000000,	56.90,	7.55
 1114000000,	56.91,	7.46
 1115000000,	56.92,	7.68
 1116000000,	56.93,	7.60
 1117000000,	56.94,	7.79
 1118000000,	56.95,	7.58
 1119000000,	56.96,	7.57
 1120000000,	56.97,	7.62
 1121000000,	56.98,	7.71
 1122000000,	56.98,	7.58
 1123000000,	57.00,	7.40
 1124000000,	57.00,	7.62
 1125000000,	57.01,	7.50
 1126000000,	57.02,	7.55
 1127000000,	57.03,	7.48
 1128000000,	57.03,	7.53
 1129000000,	57.04,	7.59
 1130000000,	57.05,	7.65
 1131000000,	57.05,	7.52
 1132000000,	57.06,	7.45
 1133000000,	57.07,	7.48
 1134000000,	57.07,	7.52
 1135000000,	57.08,	7.61
 1136000000,	57.08,	7.49
 1137000000,	57.08,	7.50
 1138000000,	57.09,	7.52
 1139000000,	57.09,	7.49
 1140000000,	57.09,	7.64
 1141000000,	57.09,	7.53
 1142000000,	57.09,	7.56
 1143000000,	57.10,	7.59
 1144000000,	57.09,	7.45
 1145000000,	57.10,	7.52
 1146000000,	57.10,	7.65
 1147000000,	57.09,	7.64
 1148000000,	57.10,	7.53
 1149000000,	57.10,	7.47
 1150000000,	57.10,	7.52
 1151000000,	57.10,	7.70
 1152000000,	57.10,	7.36
 1153000000,	57.09,	7.58
 1154000000,	57.09,	7.41
 1155000000,	57.09,	7.61
 1156000000,	57.09,	7.47
 1157000000,	57.09,	7.59
 1158000000,	57.08,	7.56
 1159000000,	57.08,	7.56
 1160000000,	57.07,	7.55
 1161000000,	57.07,	7.50
 1162000000,	57.07,	7.55
 1163000000,	57.06,	7.43
 1164000000,	57.06,	7.49
 1165000000,	57.06,	7.56
 1166000000,	57.06,	7.73
 1167000000,	57.06,	7.64
 1168000000,	57.06,	7.47
 1169000000,	57.06,	7.56
 1170000000,	57.05,	7.58
 1171000000,	57.05,	7.59
 1172000000,	57.05,	7.71
 1173000000,	57.05,	7.70
 1174000000,	57.04,	7.69
 1175000000,	57.04,	7.64
 1176000000,	57.04,	7.78
 1177000000,	57.03,	7.65
 1178000000,	57.03,	7.52
 1179000000,	57.03,	7.57
 1180000000,	57.03,	7.56
 1181000000,	57.03,	7.72
 1182000000,	57.03,	7.45
 1183000000,	57.03,	7.46
 1184000000,	57.03,	7.68
 1185000000,	57.03,	7.81
 1186000000,	57.03,	7.59
 1187000000,	57.04,	7.58
 1188000000,	57.04,	7.66
 1189000000,	57.04,	7.71
 1190000000,	57.05,	7.51
 1191000000,	57.05,	7.45
 1192000000,	57.05,	7.80
 1193000000,	57.05,	7.68
 1194000000,	57.06,	7.67
 1195000000,	57.07,	7.56
 1196000000,	57.07,	7.84
 1197000000,	57.08,	7.48
 1198000000,	57.08,	7.63
 1199000000,	57.09,	7.61
 1200000000,	57.09,	7.47
 1201000000,	57.10,	7.63
 1202000000,	57.11,	7.64
 1203000000,	57.11,	7.64
 1204000000,	57.12,	7.73
 1205000000,	57.13,	7.72
 1206000000,	57.14,	7.52
 1207000000,	57.14,	7.65
 1208000000,	57.15,	7.66
 1209000000,	57.16,	7.70
 1210000000,	57.17,	7.58
 1211000000,	57.18,	7.47
 1212000000,	57.19,	7.43
 1213000000,	57.20,	7.55
 1214000000,	57.21,	7.55
 1215000000,	57.23,	7.58
 1216000000,	57.23,	7.37
 1217000000,	57.24,	7.49
 1218000000,	57.26,	7.55
 1219000000,	57.27,	7.38
 1220000000,	57.28,	7.49
 1221000000,	57.28,	7.42
 1222000000,	57.30,	7.42
 1223000000,	57.31,	7.51
 1224000000,	57.32,	7.47
 1225000000,	57.33,	7.34
 1226000000,	57.34,	7.30
 1227000000,	57.35,	7.19
 1228000000,	57.36,	7.36
 1229000000,	57.38,	7.30
 1230000000,	57.39,	7.25
 1231000000,	57.40,	7.29
 1232000000,	57.41,	7.30
 1233000000,	57.42,	7.35
 1234000000,	57.42,	7.28
 1235000000,	57.43,	7.19
 1236000000,	57.44,	7.28
 1237000000,	57.45,	7.22
 1238000000,	57.45,	7.32
 1239000000,	57.46,	7.30
 1240000000,	57.47,	7.14
 1241000000,	57.47,	7.14
 1242000000,	57.48,	7.28
 1243000000,	57.49,	7.16
 1244000000,	57.49,	7.04
 1245000000,	57.49,	7.24
 1246000000,	57.50,	7.24
 1247000000,	57.50,	7.13
 1248000000,	57.51,	7.15
 1249000000,	57.51,	7.14
 1250000000,	57.51,	7.23
 1251000000,	57.52,	7.10
 1252000000,	57.52,	7.19
 1253000000,	57.52,	7.18
 1254000000,	57.52,	7.32
 1255000000,	57.52,	7.14
 1256000000,	57.53,	7.12
 1257000000,	57.52,	7.24
 1258000000,	57.53,	7.01
 1259000000,	57.53,	7.10
 1260000000,	57.52,	7.16
 1261000000,	57.52,	7.10
 1262000000,	57.52,	7.08
 1263000000,	57.52,	7.00
 1264000000,	57.52,	7.03
 1265000000,	57.51,	7.18
 1266000000,	57.51,	7.18
 1267000000,	57.50,	7.12
 1268000000,	57.49,	7.08
 1269000000,	57.49,	7.08
 1270000000,	57.48,	7.01
 1271000000,	57.47,	7.17
 1272000000,	57.46,	7.13
 1273000000,	57.45,	7.12
 1274000000,	57.45,	7.16
 1275000000,	57.44,	7.16
 1276000000,	57.43,	7.05
 1277000000,	57.42,	7.09
 1278000000,	57.42,	7.00
 1279000000,	57.41,	7.18
 1280000000,	57.40,	7.17
 1281000000,	57.39,	7.30
 1282000000,	57.38,	7.24
 1283000000,	57.37,	7.29
 1284000000,	57.36,	7.20
 1285000000,	57.35,	7.21
 1286000000,	57.35,	7.04
 1287000000,	57.34,	7.23
 1288000000,	57.33,	7.31
 1289000000,	57.32,	7.17
 1290000000,	57.31,	7.40
 1291000000,	57.30,	7.22
 1292000000,	57.29,	7.20
 1293000000,	57.29,	7.31
 1294000000,	57.27,	7.26
 1295000000,	57.27,	7.33
 1296000000,	57.26,	7.26
 1297000000,	57.25,	7.32
 1298000000,	57.24,	7.13
 1299000000,	57.23,	7.34
 1300000000,	57.23,	7.34
 1301000000,	57.22,	7.29
 1302000000,	57.21,	7.28
 1303000000,	57.20,	7.19
 1304000000,	57.20,	7.37
 1305000000,	57.19,	7.23
 1306000000,	57.18,	7.31
 1307000000,	57.18,	7.41
 1308000000,	57.17,	7.46
 1309000000,	57.16,	7.16
 1310000000,	57.16,	7.27
 1311000000,	57.15,	7.39
 1312000000,	57.15,	7.22
 1313000000,	57.14,	7.38
 1314000000,	57.13,	7.38
 1315000000,	57.13,	7.39
 1316000000,	57.12,	7.38
 1317000000,	57.12,	7.34
 1318000000,	57.11,	7.41
 1319000000,	57.11,	7.43
 1320000000,	57.11,	7.37
 1321000000,	57.11,	7.28
 1322000000,	57.11,	7.43
 1323000000,	57.11,	7.37
 1324000000,	57.11,	7.41
 1325000000,	57.12,	7.40
 1326000000,	57.12,	7.45
 1327000000,	57.12,	7.34
 1328000000,	57.12,	7.43
 1329000000,	57.12,	7.33
 1330000000,	57.12,	7.25
 1331000000,	57.12,	7.33
 1332000000,	57.13,	7.25
 1333000000,	57.13,	7.31
 1334000000,	57.13,	7.38
 1335000000,	57.13,	7.40
 1336000000,	57.13,	7.34
 1337000000,	57.13,	7.29
 1338000000,	57.13,	7.37
 1339000000,	57.14,	7.37
 1340000000,	57.14,	7.36
 1341000000,	57.14,	7.32
 1342000000,	57.14,	7.45
 1343000000,	57.15,	7.42
 1344000000,	57.15,	7.38
 1345000000,	57.15,	7.42
 1346000000,	57.16,	7.30
 1347000000,	57.17,	7.26
 1348000000,	57.17,	7.11
 1349000000,	57.18,	7.36
 1350000000,	57.19,	7.23
 1351000000,	57.20,	7.41
 1352000000,	57.20,	7.31
 1353000000,	57.21,	7.06
 1354000000,	57.22,	7.33
 1355000000,	57.22,	7.18
 1356000000,	57.23,	7.33
 1357000000,	57.23,	7.27
 1358000000,	57.24,	7.18
 1359000000,	57.24,	7.34
 1360000000,	57.24,	7.41
 1361000000,	57.25,	7.40
 1362000000,	57.25,	7.18
 1363000000,	57.26,	7.27
 1364000000,	57.26,	7.37
 1365000000,	57.27,	7.33
 1366000000,	57.27,	7.27
 1367000000,	57.28,	7.31
 1368000000,	57.28,	7.18
 1369000000,	57.28,	7.51
 1370000000,	57.29,	7.42
 1371000000,	57.29,	7.47
 1372000000,	57.30,	7.40
 1373000000,	57.30,	7.48
 1374000000,	57.30,	7.54
 1375000000,	57.30,	7.60
 1376000000,	57.30,	7.50
 1377000000,	57.30,	7.65
 1378000000,	57.30,	7.74
 1379000000,	57.30,	7.63
 1380000000,	57.29,	7.78
 1381000000,	57.29,	7.81
 1382000000,	57.28,	7.99
 1383000000,	57.28,	8.09
 1384000000,	57.27,	8.07
 1385000000,	57.27,	7.98
 1386000000,	57.25,	8.19
 1387000000,	57.24,	8.05
 1388000000,	57.23,	8.25
 1389000000,	57.23,	8.53
 1390000000,	57.21,	8.77
 1391000000,	57.20,	8.67
 1392000000,	57.19,	8.95
 1393000000,	57.17,	8.87
 1394000000,	57.16,	9.16
 1395000000,	57.15,	9.47
 1396000000,	57.13,	9.61
 1397000000,	57.12,	9.64
 1398000000,	57.11,	9.83
 1399000000,	57.10,	9.74
 1400000000,	57.09,	9.85
 1401000000,	57.08,	9.63
 1402000000,	57.07,	9.73
 1403000000,	57.06,	9.68
 1404000000,	57.05,	9.58
 1405000000,	57.05,	9.49
 1406000000,	57.04,	9.40
 1407000000,	57.03,	9.26
 1408000000,	57.02,	9.17
 1409000000,	57.01,	9.09
 1410000000,	56.99,	9.05
 1411000000,	56.98,	8.92
 1412000000,	56.97,	9.08
 1413000000,	56.95,	8.94
 1414000000,	56.94,	8.91
 1415000000,	56.92,	9.06
 1416000000,	56.91,	8.93
 1417000000,	56.89,	8.89
 1418000000,	56.88,	8.90
 1419000000,	56.87,	8.99
 1420000000,	56.86,	8.94
 1421000000,	56.85,	8.81
 1422000000,	56.84,	8.84
 1423000000,	56.82,	9.13
 1424000000,	56.81,	8.78
 1425000000,	56.79,	8.97
 1426000000,	56.77,	9.22
 1427000000,	56.75,	8.90
 1428000000,	56.73,	8.99
 1429000000,	56.72,	8.97
 1430000000,	56.70,	9.22
 1431000000,	56.69,	9.32
 1432000000,	56.67,	9.21
 1433000000,	56.66,	9.38
 1434000000,	56.65,	9.41
 1435000000,	56.63,	9.65
 1436000000,	56.63,	9.57
 1437000000,	56.62,	9.52
 1438000000,	56.61,	9.52
 1439000000,	56.60,	9.40
 1440000000,	56.59,	9.48
 1441000000,	56.59,	9.54
 1442000000,	56.58,	9.54
 1443000000,	56.58,	9.61
 1444000000,	56.58,	9.47
 1445000000,	56.58,	9.49
 1446000000,	56.58,	9.57
 1447000000,	56.58,	9.40
 1448000000,	56.58,	9.31
 1449000000,	56.58,	9.19
 1450000000,	56.58,	9.21
 1451000000,	56.58,	9.12
 1452000000,	56.59,	8.92
 1453000000,	56.59,	8.97
 1454000000,	56.59,	8.97
 1455000000,	56.58,	8.68
 1456000000,	56.58,	8.87
 1457000000,	56.58,	8.84
 1458000000,	56.58,	8.73
 1459000000,	56.58,	8.68
 1460000000,	56.57,	8.72
 1461000000,	56.57,	8.73
 1462000000,	56.57,	8.63
 1463000000,	56.57,	8.53
 1464000000,	56.56,	8.57
 1465000000,	56.56,	8.61
 1466000000,	56.55,	8.59
 1467000000,	56.55,	8.54
 1468000000,	56.55,	8.67
 1469000000,	56.55,	8.37
 1470000000,	56.55,	8.63
 1471000000,	56.54,	8.43
 1472000000,	56.54,	8.41
 1473000000,	56.54,	8.59
 1474000000,	56.54,	8.42
 1475000000,	56.55,	8.46
 1476000000,	56.55,	8.45
 1477000000,	56.55,	8.50
 1478000000,	56.56,	8.66
 1479000000,	56.57,	8.47
 1480000000,	56.57,	8.36
 1481000000,	56.58,	8.31
 1482000000,	56.59,	8.37
 1483000000,	56.60,	8.34
 1484000000,	56.60,	8.29
 1485000000,	56.61,	8.15
 1486000000,	56.62,	8.35
 1487000000,	56.64,	8.10
 1488000000,	56.65,	8.15
 1489000000,	56.66,	8.24
 1490000000,	56.67,	8.25
 1491000000,	56.68,	8.18
 1492000000,	56.70,	8.08
 1493000000,	56.71,	8.21
 1494000000,	56.72,	8.10
 1495000000,	56.73,	7.92
 1496000000,	56.75,	8.06
 1497000000,	56.76,	7.92
 1498000000,	56.78,	8.04
 1499000000,	56.79,	7.86
 1500000000,	56.80,	7.94
 1501000000,	56.82,	7.85
 1502000000,	56.83,	7.93
 1503000000,	56.84,	7.97
 1504000000,	56.85,	7.96
 1505000000,	56.86,	7.84
 1506000000,	56.87,	7.74
 1507000000,	56.88,	7.82
 1508000000,	56.89,	7.99
 1509000000,	56.90,	7.77
 1510000000,	56.91,	7.65
 1511000000,	56.92,	7.91
 1512000000,	56.93,	7.68
 1513000000,	56.94,	7.59
 1514000000,	56.95,	7.72
 1515000000,	56.95,	7.67
 1516000000,	56.96,	7.77
 1517000000,	56.97,	7.74
 1518000000,	56.97,	7.58
 1519000000,	56.98,	7.75
 1520000000,	56.98,	7.75
 1521000000,	56.99,	7.64
 1522000000,	56.99,	7.68
 1523000000,	57.00,	7.70
 1524000000,	57.01,	7.56
 1525000000,	57.01,	7.65
 1526000000,	57.01,	7.50
 1527000000,	57.02,	7.63
 1528000000,	57.02,	7.51
 1529000000,	57.03,	7.50
 1530000000,	57.03,	7.47
 1531000000,	57.03,	7.49
 1532000000,	57.03,	7.54
 1533000000,	57.03,	7.52
 1534000000,	57.04,	7.59
 1535000000,	57.03,	7.55
 1536000000,	57.03,	7.43
 1537000000,	57.03,	7.59
 1538000000,	57.03,	7.58
 1539000000,	57.02,	7.58
 1540000000,	57.02,	7.52
 1541000000,	57.01,	7.51
 1542000000,	57.01,	7.56
 1543000000,	57.00,	7.55
 1544000000,	56.99,	7.58
 1545000000,	56.99,	7.52
 1546000000,	56.98,	7.51
 1547000000,	56.97,	7.52
 1548000000,	56.96,	7.61
 1549000000,	56.96,	7.71
 1550000000,	56.95,	7.62
 1551000000,	56.94,	7.56
 1552000000,	56.93,	7.71
 1553000000,	56.93,	7.78
 1554000000,	56.92,	7.53
 1555000000,	56.91,	7.81
 1556000000,	56.90,	7.73
 1557000000,	56.89,	7.65
 1558000000,	56.88,	7.64
 1559000000,	56.87,	7.60
 1560000000,	56.86,	7.75
 1561000000,	56.85,	7.75
 1562000000,	56.84,	7.56
 1563000000,	56.83,	7.91
 1564000000,	56.82,	7.66
 1565000000,	56.81,	7.75
 1566000000,	56.80,	7.86
 1567000000,	56.79,	7.87
 1568000000,	56.77,	7.59
 1569000000,	56.76,	7.91
 1570000000,	56.75,	7.77
 1571000000,	56.74,	7.84
 1572000000,	56.72,	7.74
 1573000000,	56.71,	7.80
 1574000000,	56.70,	7.90
 1575000000,	56.69,	7.86
 1576000000,	56.67,	7.99
 1577000000,	56.66,	7.83
 1578000000,	56.65,	7.72
 1579000000,	56.64,	7.89
 1580000000,	56.62,	7.90
 1581000000,	56.61,	7.92
 1582000000,	56.60,	7.83
 1583000000,	56.59,	7.83
 1584000000,	56.57,	7.83
 1585000000,	56.56,	7.76
 1586000000,	56.55,	7.90
 1587000000,	56.54,	7.97
 1588000000,	56.53,	8.01
 1589000000,	56.52,	7.91
 1590000000,	56.51,	7.92
 1591000000,	56.50,	7.94
 1592000000,	56.49,	7.91
 1593000000,	56.48,	7.85
 1594000000,	56.47,	8.06
 1595000000,	56.46,	7.90
 1596000000,	56.45,	7.92
 1597000000,	56.44,	8.03
 1598000000,	56.43,	7.95
 1599000000,	56.42,	7.91
 1600000000,	56.41,	8.02
 1601000000,	56.40,	7.99
 1602000000,	56.39,	7.82
 1603000000,	56.38,	7.87
 1604000000,	56.37,	8.08
 1605000000,	56.37,	7.95
 1606000000,	56.36,	8.20
 1607000000,	56.35,	7.96
 1608000000,	56.34,	8.11
 1609000000,	56.34,	7.92
 1610000000,	56.33,	8.01
 1611000000,	56.33,	8.03
 1612000000,	56.32,	8.17
 1613000000,	56.31,	8.13
 1614000000,	56.31,	8.04
 1615000000,	56.31,	8.03
 1616000000,	56.30,	8.11
 1617000000,	56.30,	8.10
 1618000000,	56.30,	8.08
 1619000000,	56.30,	8.07
 1620000000,	56.29,	8.20
 1621000000,	56.29,	8.19
 1622000000,	56.29,	7.92
 1623000000,	56.28,	8.03
 1624000000,	56.27,	7.91
 1625000000,	56.27,	7.97
 1626000000,	56.26,	8.13
 1627000000,	56.26,	8.04
 1628000000,	56.26,	8.18
 1629000000,	56.26,	7.87
 1630000000,	56.27,	8.04
 1631000000,	56.28,	7.87
 1632000000,	56.29,	7.78
 1633000000,	56.29,	7.77
 1634000000,	56.30,	7.96
 1635000000,	56.30,	7.68
 1636000000,	56.31,	7.80
 1637000000,	56.31,	7.77
 1638000000,	56.31,	7.78
 1639000000,	56.31,	7.78
 1640000000,	56.31,	7.81
 1641000000,	56.32,	7.61
 1642000000,	56.32,	7.70
 1643000000,	56.32,	7.60
 1644000000,	56.32,	7.65
 1645000000,	56.32,	7.64
 1646000000,	56.32,	7.65
 1647000000,	56.32,	7.56
 1648000000,	56.32,	7.67
 1649000000,	56.32,	7.66
 1650000000,	56.32,	7.73
 1651000000,	56.32,	7.62
 1652000000,	56.32,	7.71
 1653000000,	56.32,	7.82
 1654000000,	56.31,	7.77
 1655000000,	56.31,	7.73
 1656000000,	56.31,	7.79
 1657000000,	56.31,	7.83
 1658000000,	56.30,	7.90
 1659000000,	56.30,	7.89
 1660000000,	56.30,	7.98
 1661000000,	56.30,	7.85
 1662000000,	56.29,	7.84
 1663000000,	56.29,	8.06
 1664000000,	56.29,	8.14
 1665000000,	56.28,	8.04
 1666000000,	56.28,	8.23
 1667000000,	56.28,	8.13
 1668000000,	56.27,	8.24
 1669000000,	56.26,	8.24
 1670000000,	56.26,	8.29
