% f (Hz),G_rec (dB),T_e_rec (K)
  900000000,	57.58,	6.46
  901000000,	57.56,	6.68
  902000000,	57.55,	6.48
  903000000,	57.54,	6.56
  904000000,	57.52,	6.40
  905000000,	57.51,	6.45
  906000000,	57.50,	6.53
  907000000,	57.49,	6.32
  908000000,	57.48,	6.46
  909000000,	57.47,	6.44
  910000000,	57.46,	6.54
  911000000,	57.45,	6.45
  912000000,	57.44,	6.31
  913000000,	57.43,	6.51
  914000000,	57.42,	6.40
  915000000,	57.41,	6.41
  916000000,	57.41,	6.52
  917000000,	57.40,	6.38
  918000000,	57.39,	6.46
  919000000,	57.39,	6.34
  920000000,	57.38,	6.44
  921000000,	57.37,	6.31
  922000000,	57.36,	6.42
  923000000,	57.36,	6.48
  924000000,	57.35,	6.45
  925000000,	57.34,	6.45
  926000000,	57.34,	6.46
  927000000,	57.33,	6.39
  928000000,	57.32,	6.44
  929000000,	57.32,	6.36
  930000000,	57.31,	6.44
  931000000,	57.30,	6.47
  932000000,	57.30,	6.32
  933000000,	57.29,	6.50
  934000000,	57.28,	6.33
  935000000,	57.27,	6.49
  936000000,	57.26,	6.48
  937000000,	57.25,	6.31
  938000000,	57.24,	6.36
  939000000,	57.24,	6.38
  940000000,	57.22,	6.40
  941000000,	57.21,	6.47
  942000000,	57.20,	6.23
  943000000,	57.19,	6.50
  944000000,	57.18,	6.44
  945000000,	57.17,	6.31
  946000000,	57.16,	6.29
  947000000,	57.14,	6.37
  948000000,	57.13,	6.39
  949000000,	57.12,	6.40
  950000000,	57.10,	6.33
  951000000,	57.09,	6.44
  952000000,	57.07,	6.36
  953000000,	57.06,	6.43
  954000000,	57.04,	6.22
  955000000,	57.02,	6.41
  956000000,	57.01,	6.44
  957000000,	56.99,	6.34
  958000000,	56.98,	6.33
  959000000,	56.96,	6.36
  960000000,	56.94,	6.39
  961000000,	56.93,	6.41
  962000000,	56.91,	6.37
  963000000,	56.89,	6.37
  964000000,	56.88,	6.25
  965000000,	56.86,	6.37
  966000000,	56.84,	6.35
  967000000,	56.82,	6.51
  968000000,	56.80,	6.29
  969000000,	56.79,	6.33
  970000000,	56.78,	6.37
  971000000,	56.76,	6.59
  972000000,	56.74,	6.44
  973000000,	56.73,	6.49
  974000000,	56.71,	6.52
  975000000,	56.70,	6.39
  976000000,	56.69,	6.45
  977000000,	56.68,	6.38
  978000000,	56.67,	6.37
  979000000,	56.66,	6.52
  980000000,	56.65,	6.50
  981000000,	56.64,	6.55
  982000000,	56.63,	6.54
  983000000,	56.62,	6.41
  984000000,	56.61,	6.65
  985000000,	56.60,	6.57
  986000000,	56.59,	6.67
  987000000,	56.59,	6.69
  988000000,	56.58,	6.59
  989000000,	56.57,	6.67
  990000000,	56.56,	6.70
  991000000,	56.55,	6.93
  992000000,	56.55,	6.75
  993000000,	56.54,	6.77
  994000000,	56.54,	6.80
  995000000,	56.54,	6.59
  996000000,	56.54,	6.59
  997000000,	56.54,	6.76
  998000000,	56.54,	6.78
  999000000,	56.54,	6.80
 1000000000,	56.54,	6.83
 1001000000,	56.54,	6.80
 1002000000,	56.54,	6.78
 1003000000,	56.54,	6.88
 1004000000,	56.54,	6.87
 1005000000,	56.54,	6.86
 1006000000,	56.55,	6.76
 1007000000,	56.55,	6.94
 1008000000,	56.55,	6.97
 1009000000,	56.55,	7.07
 1010000000,	56.55,	7.04
 1011000000,	56.55,	6.96
 1012000000,	56.56,	6.97
 1013000000,	56.56,	6.90
 1014000000,	56.56,	7.01
 1015000000,	56.57,	7.11
 1016000000,	56.57,	7.02
 1017000000,	56.58,	7.10
 1018000000,	56.58,	6.98
 1019000000,	56.58,	6.99
 1020000000,	56.59,	7.16
 1021000000,	56.59,	6.88
 1022000000,	56.60,	7.12
 1023000000,	56.60,	7.18
 1024000000,	56.60,	7.18
 1025000000,	56.61,	7.12
 1026000000,	56.61,	7.13
 1027000000,	56.61,	7.13
 1028000000,	56.61,	7.13
 1029000000,	56.62,	7.25
 1030000000,	56.62,	7.42
 1031000000,	56.63,	7.15
 1032000000,	56.63,	7.27
 1033000000,	56.63,	7.23
 1034000000,	56.64,	7.14
 1035000000,	56.64,	7.28
 1036000000,	56.64,	7.33
 1037000000,	56.64,	7.27
 1038000000,	56.64,	7.08
 1039000000,	56.64,	7.33
 1040000000,	56.63,	7.42
 1041000000,	56.63,	7.37
 1042000000,	56.63,	7.19
 1043000000,	56.62,	7.30
 1044000000,	56.62,	7.12
 1045000000,	56.61,	7.41
 1046000000,	56.61,	7.17
 1047000000,	56.60,	7.27
 1048000000,	56.59,	7.38
 1049000000,	56.59,	7.27
 1050000000,	56.58,	7.40
 1051000000,	56.57,	7.31
 1052000000,	56.56,	7.42
 1053000000,	56.55,	7.39
 1054000000,	56.54,	7.17
 1055000000,	56.53,	7.26
 1056000000,	56.52,	7.33
 1057000000,	56.52,	7.34
 1058000000,	56.50,	7.30
 1059000000,	56.49,	7.30
 1060000000,	56.47,	7.40
 1061000000,	56.46,	7.40
 1062000000,	56.45,	7.36
 1063000000,	56.44,	7.40
 1064000000,	56.42,	7.47
 1065000000,	56.41,	7.30
 1066000000,	56.40,	7.42
 1067000000,	56.39,	7.32
 1068000000,	56.37,	7.42
 1069000000,	56.36,	7.37
 1070000000,	56.34,	7.40
 1071000000,	56.33,	7.46
 1072000000,	56.32,	7.49
 1073000000,	56.31,	7.42
 1074000000,	56.30,	7.49
 1075000000,	56.29,	7.46
 1076000000,	56.27,	7.53
 1077000000,	56.26,	7.56
 1078000000,	56.25,	7.45
 1079000000,	56.24,	7.51
 1080000000,	56.22,	7.43
 1081000000,	56.22,	7.69
 1082000000,	56.20,	7.49
 1083000000,	56.19,	7.56
 1084000000,	56.18,	7.76
 1085000000,	56.17,	7.61
 1086000000,	56.17,	7.60
 1087000000,	56.16,	7.57
 1088000000,	56.15,	7.73
 1089000000,	56.15,	7.68
 1090000000,	56.14,	7.69
 1091000000,	56.13,	7.71
 1092000000,	56.13,	7.74
 1093000000,	56.12,	7.73
 1094000000,	56.12,	7.78
 1095000000,	56.11,	7.71
 1096000000,	56.11,	7.82
 1097000000,	56.11,	7.62
 1098000000,	56.11,	7.72
 1099000000,	56.10,	7.83
 1100000000,	56.10,	7.88
 1101000000,	56.10,	7.72
 1102000000,	56.10,	7.96
 1103000000,	56.10,	7.93
 1104000000,	56.10,	7.83
 1105000000,	56.10,	7.84
 1106000000,	56.10,	7.88
 1107000000,	56.10,	7.81
 1108000000,	56.10,	7.79
 1109000000,	56.10,	7.91
 1110000000,	56.11,	7.98
 1111000000,	56.11,	7.94
 1112000000,	56.11,	7.92
 1113000000,	56.11,	8.02
 1114000000,	56.12,	7.87
 1115000000,	56.12,	7.81
 1116000000,	56.12,	8.00
 1117000000,	56.13,	7.82
 1118000000,	56.13,	8.03
 1119000000,	56.14,	7.91
 1120000000,	56.15,	7.97
 1121000000,	56.15,	7.87
 1122000000,	56.16,	7.77
 1123000000,	56.16,	7.82
 1124000000,	56.17,	7.97
 1125000000,	56.17,	7.89
 1126000000,	56.18,	8.03
 1127000000,	56.19,	7.85
 1128000000,	56.19,	7.86
 1129000000,	56.19,	8.00
 1130000000,	56.20,	7.95
 1131000000,	56.21,	7.89
 1132000000,	56.21,	7.95
 1133000000,	56.21,	7.98
 1134000000,	56.22,	7.88
 1135000000,	56.23,	7.95
 1136000000,	56.23,	7.88
 1137000000,	56.23,	7.94
 1138000000,	56.24,	8.10
 1139000000,	56.24,	7.85
 1140000000,	56.24,	7.85
 1141000000,	56.25,	7.90
 1142000000,	56.26,	7.96
 1143000000,	56.26,	7.88
 1144000000,	56.26,	8.00
 1145000000,	56.26,	7.87
 1146000000,	56.26,	8.00
 1147000000,	56.26,	7.85
 1148000000,	56.26,	7.81
 1149000000,	56.26,	7.90
 1150000000,	56.27,	7.88
 1151000000,	56.27,	7.94
 1152000000,	56.26,	7.91
 1153000000,	56.26,	7.93
 1154000000,	56.26,	7.80
 1155000000,	56.26,	7.78
 1156000000,	56.25,	7.86
 1157000000,	56.25,	7.91
 1158000000,	56.24,	7.84
 1159000000,	56.23,	7.88
 1160000000,	56.23,	7.88
 1161000000,	56.22,	7.86
 1162000000,	56.22,	7.81
 1163000000,	56.21,	8.03
 1164000000,	56.21,	8.01
 1165000000,	56.20,	7.93
 1166000000,	56.20,	8.07
 1167000000,	56.19,	7.92
 1168000000,	56.18,	7.86
 1169000000,	56.17,	7.93
 1170000000,	56.16,	7.90
 1171000000,	56.16,	7.98
 1172000000,	56.15,	7.96
 1173000000,	56.14,	7.96
 1174000000,	56.13,	8.04
 1175000000,	56.12,	8.01
 1176000000,	56.12,	8.02
 1177000000,	56.11,	8.03
 1178000000,	56.10,	7.90
 1179000000,	56.09,	7.96
 1180000000,	56.08,	7.88
 1181000000,	56.07,	8.15
 1182000000,	56.06,	7.96
 1183000000,	56.05,	8.11
 1184000000,	56.04,	8.10
 1185000000,	56.04,	7.92
 1186000000,	56.03,	8.13
 1187000000,	56.02,	7.99
 1188000000,	56.02,	8.24
 1189000000,	56.01,	8.07
 1190000000,	56.00,	8.14
 1191000000,	56.00,	8.16
 1192000000,	55.99,	8.17
 1193000000,	55.98,	8.15
 1194000000,	55.97,	8.41
 1195000000,	55.97,	8.11
 1196000000,	55.96,	8.27
 1197000000,	55.96,	8.27
 1198000000,	55.95,	8.17
 1199000000,	55.95,	8.36
 1200000000,	55.95,	8.33
 1201000000,	55.94,	8.25
 1202000000,	55.94,	8.36
 1203000000,	55.93,	8.23
 1204000000,	55.93,	8.27
 1205000000,	55.93,	8.09
 1206000000,	55.93,	8.45
 1207000000,	55.94,	8.52
 1208000000,	55.94,	8.19
 1209000000,	55.94,	8.28
 1210000000,	55.95,	8.23
 1211000000,	55.96,	8.51
 1212000000,	55.96,	8.26
 1213000000,	55.97,	8.21
 1214000000,	55.97,	8.27
 1215000000,	55.98,	8.35
 1216000000,	55.99,	8.33
 1217000000,	56.00,	8.42
 1218000000,	56.00,	8.20
 1219000000,	56.01,	8.29
 1220000000,	56.02,	8.41
 1221000000,	56.03,	8.26
 1222000000,	56.03,	8.19
 1223000000,	56.04,	8.33
 1224000000,	56.04,	8.29
 1225000000,	56.05,	8.28
 1226000000,	56.05,	8.32
 1227000000,	56.06,	8.30
 1228000000,	56.07,	8.17
 1229000000,	56.08,	8.28
 1230000000,	56.09,	8.23
 1231000000,	56.10,	8.20
 1232000000,	56.11,	8.21
 1233000000,	56.12,	8.21
 1234000000,	56.14,	8.27
 1235000000,	56.15,	8.23
 1236000000,	56.16,	8.07
 1237000000,	56.18,	8.26
 1238000000,	56.19,	8.14
 1239000000,	56.20,	8.32
 1240000000,	56.22,	8.13
 1241000000,	56.23,	8.15
 1242000000,	56.25,	8.12
 1243000000,	56.26,	8.15
 1244000000,	56.27,	8.07
 1245000000,	56.29,	8.00
 1246000000,	56.30,	8.09
 1247000000,	56.32,	8.16
 1248000000,	56.33,	8.00
 1249000000,	56.35,	7.92
 1250000000,	56.36,	7.97
 1251000000,	56.37,	8.05
 1252000000,	56.38,	7.96
 1253000000,	56.39,	7.86
 1254000000,	56.41,	7.88
 1255000000,	56.42,	7.82
 1256000000,	56.42,	7.88
 1257000000,	56.43,	7.73
 1258000000,	56.44,	7.80
 1259000000,	56.45,	7.79
 1260000000,	56.46,	7.76
 1261000000,	56.47,	7.84
 1262000000,	56.47,	7.86
 1263000000,	56.48,	7.69
 1264000000,	56.49,	7.80
 1265000000,	56.49,	7.65
 1266000000,	56.50,	7.71
 1267000000,	56.50,	7.70
 1268000000,	56.51,	7.60
 1269000000,	56.51,	7.61
 1270000000,	56.51,	7.52
 1271000000,	56.52,	7.64
 1272000000,	56.52,	7.53
 1273000000,	56.51,	7.42
 1274000000,	56.52,	7.42
 1275000000,	56.52,	7.49
 1276000000,	56.52,	7.43
 1277000000,	56.53,	7.49
 1278000000,	56.53,	7.64
 1279000000,	56.53,	7.53
 1280000000,	56.53,	7.48
 1281000000,	56.53,	7.41
 1282000000,	56.53,	7.35
 1283000000,	56.53,	7.44
 1284000000,	56.52,	7.33
 1285000000,	56.52,	7.38
 1286000000,	56.51,	7.39
 1287000000,	56.50,	7.34
 1288000000,	56.50,	7.34
 1289000000,	56.49,	7.39
 1290000000,	56.48,	7.29
 1291000000,	56.47,	7.45
 1292000000,	56.46,	7.37
 1293000000,	56.45,	7.24
 1294000000,	56.44,	7.26
 1295000000,	56.43,	7.24
 1296000000,	56.42,	7.31
 1297000000,	56.41,	7.14
 1298000000,	56.40,	7.23
 1299000000,	56.39,	7.32
 1300000000,	56.38,	7.29
 1301000000,	56.37,	7.28
 1302000000,	56.36,	7.31
 1303000000,	56.34,	7.32
 1304000000,	56.33,	7.23
 1305000000,	56.32,	7.26
 1306000000,	56.31,	7.37
 1307000000,	56.29,	7.41
 1308000000,	56.28,	7.26
 1309000000,	56.27,	7.28
 1310000000,	56.26,	7.27
 1311000000,	56.24,	7.16
 1312000000,	56.23,	7.21
 1313000000,	56.22,	7.19
 1314000000,	56.20,	7.42
 1315000000,	56.19,	7.21
 1316000000,	56.18,	7.14
 1317000000,	56.17,	7.24
 1318000000,	56.16,	7.22
 1319000000,	56.14,	7.14
 1320000000,	56.13,	7.31
 1321000000,	56.12,	7.28
 1322000000,	56.11,	7.32
 1323000000,	56.10,	7.31
 1324000000,	56.09,	7.56
 1325000000,	56.08,	7.43
 1326000000,	56.06,	7.49
 1327000000,	56.06,	7.46
 1328000000,	56.05,	7.32
 1329000000,	56.04,	7.30
 1330000000,	56.03,	7.44
 1331000000,	56.02,	7.28
 1332000000,	56.01,	7.49
 1333000000,	56.01,	7.61
 1334000000,	56.00,	7.56
 1335000000,	56.00,	7.45
 1336000000,	55.99,	7.28
 1337000000,	55.99,	7.51
 1338000000,	55.99,	7.58
 1339000000,	55.98,	7.51
 1340000000,	55.98,	7.62
 1341000000,	55.97,	7.53
 1342000000,	55.97,	7.39
 1343000000,	55.96,	7.58
 1344000000,	55.95,	7.58
 1345000000,	55.94,	7.53
 1346000000,	55.94,	7.65
 1347000000,	55.93,	7.63
 1348000000,	55.93,	7.57
 1349000000,	55.93,	7.73
 1350000000,	55.92,	7.59
 1351000000,	55.92,	7.39
 1352000000,	55.92,	7.71
 1353000000,	55.92,	7.85
 1354000000,	55.93,	7.72
 1355000000,	55.93,	7.68
 1356000000,	55.93,	7.68
 1357000000,	55.94,	7.62
 1358000000,	55.94,	7.81
 1359000000,	55.95,	7.75
 1360000000,	55.96,	7.76
 1361000000,	55.97,	7.83
 1362000000,	55.98,	7.68
 1363000000,	55.98,	7.97
 1364000000,	55.99,	7.93
 1365000000,	55.99,	7.87
 1366000000,	56.00,	7.88
 1367000000,	56.01,	7.93
 1368000000,	56.01,	7.92
 1369000000,	56.03,	7.89
 1370000000,	56.03,	7.74
 1371000000,	56.04,	7.96
 1372000000,	56.05,	7.99
 1373000000,	56.06,	7.89
 1374000000,	56.07,	7.72
 1375000000,	56.08,	7.88
 1376000000,	56.08,	8.03
 1377000000,	56.09,	7.90
 1378000000,	56.10,	7.91
 1379000000,	56.10,	7.87
 1380000000,	56.11,	7.97
 1381000000,	56.11,	7.86
 1382000000,	56.11,	7.96
 1383000000,	56.11,	7.85
 1384000000,	56.12,	7.99
 1385000000,	56.12,	8.06
 1386000000,	56.12,	8.15
 1387000000,	56.12,	8.23
 1388000000,	56.12,	8.22
 1389000000,	56.12,	8.23
 1390000000,	56.12,	8.33
 1391000000,	56.11,	8.26
 1392000000,	56.11,	8.34
 1393000000,	56.11,	8.26
 1394000000,	56.10,	8.56
 1395000000,	56.10,	8.45
 1396000000,	56.10,	8.42
 1397000000,	56.09,	8.58
 1398000000,	56.09,	8.46
 1399000000,	56.08,	8.47
 1400000000,	56.07,	8.54
 1401000000,	56.06,	8.48
 1402000000,	56.05,	8.52
 1403000000,	56.04,	8.70
 1404000000,	56.03,	8.59
 1405000000,	56.02,	8.65
 1406000000,	56.01,	8.62
 1407000000,	55.99,	8.47
 1408000000,	55.98,	8.57
 1409000000,	55.96,	8.71
 1410000000,	55.95,	8.83
 1411000000,	55.93,	8.86
 1412000000,	55.92,	8.73
 1413000000,	55.91,	8.84
 1414000000,	55.90,	8.85
 1415000000,	55.90,	8.86
 1416000000,	55.90,	8.91
 1417000000,	55.90,	9.00
 1418000000,	55.90,	8.81
 1419000000,	55.90,	8.68
 1420000000,	55.90,	8.66
 1421000000,	55.89,	8.50
 1422000000,	55.89,	8.28
 1423000000,	55.88,	8.52
 1424000000,	55.87,	8.35
 1425000000,	55.86,	8.22
 1426000000,	55.85,	8.37
 1427000000,	55.84,	8.34
 1428000000,	55.82,	8.40
 1429000000,	55.81,	8.17
 1430000000,	55.79,	8.18
 1431000000,	55.77,	8.30
 1432000000,	55.76,	8.26
 1433000000,	55.74,	8.33
 1434000000,	55.72,	8.30
 1435000000,	55.70,	8.30
 1436000000,	55.68,	8.44
 1437000000,	55.67,	8.70
 1438000000,	55.64,	8.51
 1439000000,	55.63,	8.54
 1440000000,	55.61,	8.57
 1441000000,	55.59,	8.52
 1442000000,	55.57,	8.70
 1443000000,	55.55,	8.83
 1444000000,	55.53,	8.71
 1445000000,	55.52,	8.94
 1446000000,	55.50,	8.77
 1447000000,	55.49,	8.91
 1448000000,	55.47,	8.77
 1449000000,	55.46,	8.70
 1450000000,	55.45,	8.94
 1451000000,	55.44,	8.71
 1452000000,	55.42,	8.74
 1453000000,	55.41,	8.76
 1454000000,	55.40,	8.73
 1455000000,	55.38,	8.76
 1456000000,	55.37,	8.70
 1457000000,	55.36,	8.67
 1458000000,	55.34,	8.64
 1459000000,	55.33,	8.65
 1460000000,	55.32,	8.57
 1461000000,	55.30,	8.73
 1462000000,	55.29,	8.58
 1463000000,	55.27,	8.59
 1464000000,	55.26,	8.44
 1465000000,	55.25,	8.64
 1466000000,	55.23,	8.59
 1467000000,	55.22,	8.72
 1468000000,	55.20,	8.75
 1469000000,	55.19,	8.64
 1470000000,	55.17,	8.67
 1471000000,	55.16,	8.76
 1472000000,	55.14,	8.78
 1473000000,	55.14,	8.72
 1474000000,	55.12,	8.70
 1475000000,	55.12,	8.73
 1476000000,	55.11,	8.74
 1477000000,	55.10,	8.68
 1478000000,	55.10,	8.79
 1479000000,	55.09,	8.81
 1480000000,	55.09,	8.87
 1481000000,	55.09,	8.71
 1482000000,	55.09,	8.74
 1483000000,	55.08,	8.90
 1484000000,	55.08,	8.69
 1485000000,	55.08,	8.84
 1486000000,	55.08,	8.84
 1487000000,	55.08,	8.76
 1488000000,	55.08,	8.85
 1489000000,	55.08,	8.87
 1490000000,	55.08,	8.87
 1491000000,	55.09,	8.72
 1492000000,	55.09,	8.69
 1493000000,	55.09,	8.83
 1494000000,	55.10,	8.65
 1495000000,	55.11,	8.75
 1496000000,	55.11,	8.68
 1497000000,	55.12,	8.67
 1498000000,	55.12,	8.68
 1499000000,	55.13,	8.91
 1500000000,	55.14,	8.55
 1501000000,	55.15,	8.71
 1502000000,	55.15,	8.57
 1503000000,	55.16,	8.52
 1504000000,	55.17,	8.57
 1505000000,	55.18,	8.51
 1506000000,	55.18,	8.41
 1507000000,	55.19,	8.46
 1508000000,	55.20,	8.48
 1509000000,	55.21,	8.46
 1510000000,	55.22,	8.52
 1511000000,	55.23,	8.33
 1512000000,	55.23,	8.37
 1513000000,	55.24,	8.36
 1514000000,	55.25,	8.38
 1515000000,	55.26,	8.25
 1516000000,	55.27,	8.20
 1517000000,	55.27,	8.19
 1518000000,	55.28,	8.28
 1519000000,	55.29,	8.25
 1520000000,	55.30,	8.14
 1521000000,	55.31,	8.31
 1522000000,	55.32,	8.19
 1523000000,	55.33,	7.99
 1524000000,	55.33,	8.25
 1525000000,	55.34,	8.21
 1526000000,	55.35,	8.10
 1527000000,	55.36,	8.19
 1528000000,	55.36,	7.97
 1529000000,	55.37,	8.33
 1530000000,	55.38,	8.13
 1531000000,	55.38,	8.23
 1532000000,	55.39,	8.00
 1533000000,	55.39,	8.16
 1534000000,	55.40,	8.01
 1535000000,	55.40,	8.10
 1536000000,	55.41,	8.09
 1537000000,	55.41,	8.14
 1538000000,	55.41,	8.09
 1539000000,	55.42,	8.17
 1540000000,	55.42,	8.01
 1541000000,	55.43,	7.91
 1542000000,	55.43,	7.92
 1543000000,	55.43,	8.04
 1544000000,	55.43,	7.85
 1545000000,	55.44,	8.04
 1546000000,	55.44,	8.06
 1547000000,	55.44,	8.00
 1548000000,	55.44,	7.89
 1549000000,	55.44,	7.98
 1550000000,	55.44,	7.92
 1551000000,	55.44,	7.86
 1552000000,	55.43,	7.84
 1553000000,	55.43,	7.70
 1554000000,	55.42,	7.78
 1555000000,	55.42,	7.82
 1556000000,	55.42,	7.89
 1557000000,	55.41,	7.69
 1558000000,	55.40,	7.94
 1559000000,	55.40,	7.86
 1560000000,	55.39,	7.87
 1561000000,	55.38,	7.78
 1562000000,	55.38,	7.85
 1563000000,	55.37,	7.81
 1564000000,	55.36,	7.77
 1565000000,	55.35,	7.86
 1566000000,	55.34,	7.74
 1567000000,	55.33,	7.78
 1568000000,	55.32,	7.72
 1569000000,	55.31,	7.88
 1570000000,	55.30,	7.96
 1571000000,	55.29,	7.81
 1572000000,	55.27,	7.83
 1573000000,	55.26,	7.95
 1574000000,	55.25,	7.74
 1575000000,	55.23,	7.81
 1576000000,	55.22,	7.99
 1577000000,	55.20,	7.80
 1578000000,	55.19,	7.92
 1579000000,	55.18,	7.95
 1580000000,	55.16,	7.88
 1581000000,	55.15,	7.94
 1582000000,	55.13,	8.05
 1583000000,	55.12,	8.10
 1584000000,	55.10,	8.04
 1585000000,	55.08,	7.99
 1586000000,	55.07,	8.14
 1587000000,	55.05,	8.05
 1588000000,	55.03,	8.09
 1589000000,	55.01,	8.14
 1590000000,	55.00,	8.14
 1591000000,	54.98,	8.21
 1592000000,	54.96,	8.10
 1593000000,	54.95,	7.97
 1594000000,	54.92,	8.14
 1595000000,	54.91,	8.23
 1596000000,	54.89,	8.33
 1597000000,	54.87,	8.13
 1598000000,	54.85,	8.30
 1599000000,	54.83,	8.32
 1600000000,	54.81,	8.36
 1601000000,	54.79,	8.29
 1602000000,	54.78,	8.25
 1603000000,	54.76,	8.42
 1604000000,	54.74,	8.62
 1605000000,	54.72,	8.29
 1606000000,	54.70,	8.49
 1607000000,	54.68,	8.56
 1608000000,	54.67,	8.54
 1609000000,	54.65,	8.42
 1610000000,	54.63,	8.54
 1611000000,	54.61,	8.71
 1612000000,	54.60,	8.50
 1613000000,	54.58,	8.77
 1614000000,	54.57,	8.59
 1615000000,	54.56,	8.81
 1616000000,	54.55,	8.85
 1617000000,	54.54,	8.84
 1618000000,	54.54,	8.92
 1619000000,	54.53,	8.82
 1620000000,	54.53,	8.86
 1621000000,	54.53,	8.89
 1622000000,	54.53,	8.64
 1623000000,	54.52,	8.97
 1624000000,	54.51,	9.04
 1625000000,	54.49,	8.88
 1626000000,	54.48,	8.74
 1627000000,	54.46,	8.82
 1628000000,	54.45,	8.78
 1629000000,	54.44,	8.75
 1630000000,	54.42,	8.92
 1631000000,	54.42,	8.80
 1632000000,	54.42,	8.84
 1633000000,	54.42,	8.77
 1634000000,	54.42,	8.80
 1635000000,	54.43,	8.73
 1636000000,	54.44,	8.66
 1637000000,	54.45,	8.56
 1638000000,	54.46,	8.68
 1639000000,	54.46,	8.44
 1640000000,	54.47,	8.59
 1641000000,	54.47,	8.44
 1642000000,	54.48,	8.28
 1643000000,	54.48,	8.46
 1644000000,	54.48,	8.35
 1645000000,	54.48,	8.32
 1646000000,	54.48,	8.56
 1647000000,	54.48,	8.27
 1648000000,	54.48,	8.32
 1649000000,	54.48,	8.22
 1650000000,	54.48,	8.22
 1651000000,	54.48,	8.29
 1652000000,	54.48,	8.31
 1653000000,	54.48,	8.35
 1654000000,	54.48,	8.20
 1655000000,	54.48,	8.30
 1656000000,	54.48,	8.27
 1657000000,	54.48,	8.24
 1658000000,	54.48,	8.18
 1659000000,	54.49,	8.19
 1660000000,	54.49,	8.10
 1661000000,	54.49,	8.21
 1662000000,	54.49,	8.22
 1663000000,	54.50,	8.11
 1664000000,	54.50,	8.20
 1665000000,	54.50,	8.10
 1666000000,	54.50,	8.24
 1667000000,	54.50,	8.26
 1668000000,	54.50,	8.21
 1669000000,	54.50,	8.25
 1670000000,	54.50,	8.45
