% f (Hz),G_rec (dB),T_e_rec (K)
  580000000,	53.83,	4.95
  581000000,	53.82,	5.00
  582000000,	53.81,	4.91
  583000000,	53.81,	5.00
  584000000,	53.80,	4.94
  585000000,	53.79,	4.97
  586000000,	53.78,	4.98
  587000000,	53.77,	5.04
  588000000,	53.76,	4.82
  589000000,	53.76,	4.89
  590000000,	53.75,	5.02
  591000000,	53.74,	4.93
  592000000,	53.73,	4.90
  593000000,	53.72,	4.85
  594000000,	53.71,	4.92
  595000000,	53.70,	4.83
  596000000,	53.69,	4.92
  597000000,	53.68,	4.91
  598000000,	53.67,	4.86
  599000000,	53.66,	4.64
  600000000,	53.65,	4.71
  601000000,	53.64,	4.78
  602000000,	53.63,	4.70
  603000000,	53.63,	4.63
  604000000,	53.62,	4.75
  605000000,	53.61,	4.74
  606000000,	53.60,	4.67
  607000000,	53.59,	4.83
  608000000,	53.59,	4.82
  609000000,	53.58,	4.74
  610000000,	53.57,	4.59
  611000000,	53.56,	4.72
  612000000,	53.56,	4.66
  613000000,	53.55,	4.63
  614000000,	53.54,	4.76
  615000000,	53.54,	4.54
  616000000,	53.53,	4.56
  617000000,	53.53,	4.56
  618000000,	53.52,	4.69
  619000000,	53.51,	4.72
  620000000,	53.51,	4.59
  621000000,	53.50,	4.53
  622000000,	53.49,	4.53
  623000000,	53.49,	4.72
  624000000,	53.48,	4.65
  625000000,	53.48,	4.60
  626000000,	53.47,	4.51
  627000000,	53.47,	4.61
  628000000,	53.46,	4.47
  629000000,	53.45,	4.60
  630000000,	53.45,	4.54
  631000000,	53.44,	4.61
  632000000,	53.43,	4.62
  633000000,	53.43,	4.54
  634000000,	53.42,	4.51
  635000000,	53.41,	4.61
  636000000,	53.40,	4.59
  637000000,	53.40,	4.53
  638000000,	53.39,	4.59
  639000000,	53.38,	4.49
  640000000,	53.38,	4.57
  641000000,	53.37,	4.55
  642000000,	53.36,	4.53
  643000000,	53.35,	4.41
  644000000,	53.34,	4.54
  645000000,	53.34,	4.51
  646000000,	53.33,	4.58
  647000000,	53.32,	4.48
  648000000,	53.31,	4.51
  649000000,	53.31,	4.55
  650000000,	53.30,	4.60
  651000000,	53.29,	4.59
  652000000,	53.28,	4.50
  653000000,	53.27,	4.45
  654000000,	53.27,	4.56
  655000000,	53.26,	4.50
  656000000,	53.25,	4.40
  657000000,	53.25,	4.47
  658000000,	53.24,	4.48
  659000000,	53.23,	4.56
  660000000,	53.23,	4.53
  661000000,	53.22,	4.46
  662000000,	53.21,	4.52
  663000000,	53.21,	4.45
  664000000,	53.20,	4.52
  665000000,	53.20,	4.52
  666000000,	53.20,	4.47
  667000000,	53.19,	4.40
  668000000,	53.19,	4.51
  669000000,	53.18,	4.55
  670000000,	53.18,	4.53
  671000000,	53.18,	4.64
  672000000,	53.18,	4.51
  673000000,	53.17,	4.59
  674000000,	53.17,	4.58
  675000000,	53.17,	4.54
  676000000,	53.17,	4.62
  677000000,	53.16,	4.56
  678000000,	53.17,	4.51
  679000000,	53.16,	4.49
  680000000,	53.17,	4.51
  681000000,	53.17,	4.64
  682000000,	53.17,	4.67
  683000000,	53.16,	4.62
  684000000,	53.17,	4.59
  685000000,	53.17,	4.65
  686000000,	53.17,	4.54
  687000000,	53.17,	4.61
  688000000,	53.17,	4.66
  689000000,	53.17,	4.76
  690000000,	53.17,	4.72
  691000000,	53.17,	4.65
  692000000,	53.17,	4.64
  693000000,	53.17,	4.64
  694000000,	53.17,	4.60
  695000000,	53.18,	4.63
  696000000,	53.18,	4.62
  697000000,	53.18,	4.65
  698000000,	53.17,	4.69
  699000000,	53.17,	4.73
  700000000,	53.17,	4.74
  701000000,	53.17,	4.69
  702000000,	53.17,	4.77
  703000000,	53.17,	4.81
  704000000,	53.17,	4.69
  705000000,	53.17,	4.68
  706000000,	53.16,	4.67
  707000000,	53.16,	4.72
  708000000,	53.16,	4.71
  709000000,	53.15,	4.69
  710000000,	53.15,	4.78
  711000000,	53.15,	4.74
  712000000,	53.14,	4.71
  713000000,	53.14,	4.69
  714000000,	53.13,	4.70
  715000000,	53.13,	4.77
  716000000,	53.12,	4.76
  717000000,	53.12,	4.88
  718000000,	53.11,	4.80
  719000000,	53.10,	4.73
  720000000,	53.10,	4.78
  721000000,	53.09,	4.75
  722000000,	53.09,	4.73
  723000000,	53.08,	4.83
  724000000,	53.07,	4.71
  725000000,	53.07,	4.73
  726000000,	53.06,	4.92
  727000000,	53.05,	4.82
  728000000,	53.05,	4.96
  729000000,	53.04,	4.83
  730000000,	53.03,	4.87
  731000000,	53.03,	5.01
  732000000,	53.03,	4.79
  733000000,	53.02,	4.89
  734000000,	53.02,	4.98
  735000000,	53.01,	5.05
  736000000,	53.01,	4.95
  737000000,	53.00,	5.03
  738000000,	53.00,	5.09
  739000000,	53.00,	5.09
  740000000,	52.99,	5.12
  741000000,	52.99,	5.05
  742000000,	52.99,	5.07
  743000000,	52.98,	4.95
  744000000,	52.98,	5.23
  745000000,	52.98,	5.18
  746000000,	52.98,	5.19
  747000000,	52.98,	5.18
  748000000,	52.98,	5.33
  749000000,	52.98,	5.20
  750000000,	52.98,	5.18
  751000000,	52.98,	5.28
  752000000,	52.98,	5.31
  753000000,	52.98,	5.37
  754000000,	52.99,	5.35
  755000000,	52.99,	5.28
  756000000,	52.99,	5.30
  757000000,	53.00,	5.36
  758000000,	53.00,	5.33
  759000000,	53.01,	5.34
  760000000,	53.02,	5.33
  761000000,	53.03,	5.34
  762000000,	53.03,	5.32
  763000000,	53.04,	5.42
  764000000,	53.05,	5.39
  765000000,	53.06,	5.29
  766000000,	53.07,	5.36
  767000000,	53.08,	5.31
  768000000,	53.10,	5.46
  769000000,	53.11,	5.24
  770000000,	53.12,	5.32
  771000000,	53.13,	5.26
  772000000,	53.15,	5.42
  773000000,	53.16,	5.25
  774000000,	53.17,	5.21
  775000000,	53.18,	5.07
  776000000,	53.20,	5.25
  777000000,	53.21,	5.33
  778000000,	53.22,	5.15
  779000000,	53.23,	5.26
  780000000,	53.25,	5.14
  781000000,	53.26,	5.17
  782000000,	53.27,	5.05
  783000000,	53.28,	5.09
  784000000,	53.29,	5.16
  785000000,	53.30,	5.16
  786000000,	53.31,	5.08
  787000000,	53.32,	5.06
  788000000,	53.34,	5.04
  789000000,	53.35,	4.99
  790000000,	53.35,	5.04
  791000000,	53.36,	5.09
  792000000,	53.37,	4.98
  793000000,	53.38,	4.98
  794000000,	53.39,	4.94
  795000000,	53.40,	4.88
  796000000,	53.40,	4.92
  797000000,	53.41,	4.94
  798000000,	53.41,	4.90
  799000000,	53.42,	5.01
  800000000,	53.42,	5.01
  801000000,	53.43,	5.05
  802000000,	53.43,	4.85
  803000000,	53.44,	4.79
  804000000,	53.44,	5.04
  805000000,	53.44,	5.08
  806000000,	53.44,	5.09
  807000000,	53.44,	5.01
  808000000,	53.44,	5.10
  809000000,	53.44,	4.99
  810000000,	53.44,	5.02
  811000000,	53.44,	5.10
  812000000,	53.44,	5.13
  813000000,	53.43,	5.19
  814000000,	53.43,	5.14
  815000000,	53.43,	5.21
  816000000,	53.43,	5.09
  817000000,	53.42,	5.27
  818000000,	53.41,	5.25
  819000000,	53.41,	5.30
  820000000,	53.40,	5.33
  821000000,	53.40,	5.38
  822000000,	53.39,	5.35
  823000000,	53.38,	5.41
  824000000,	53.38,	5.36
  825000000,	53.37,	5.36
  826000000,	53.36,	5.48
  827000000,	53.35,	5.48
  828000000,	53.35,	5.54
  829000000,	53.34,	5.56
  830000000,	53.33,	5.56
  831000000,	53.33,	5.63
  832000000,	53.32,	5.63
  833000000,	53.31,	5.67
  834000000,	53.31,	5.66
  835000000,	53.30,	5.78
  836000000,	53.30,	5.72
  837000000,	53.29,	5.77
  838000000,	53.29,	5.86
  839000000,	53.28,	5.87
  840000000,	53.28,	5.74
  841000000,	53.28,	5.95
  842000000,	53.27,	5.85
  843000000,	53.27,	5.91
  844000000,	53.27,	5.84
  845000000,	53.27,	5.88
  846000000,	53.27,	6.00
  847000000,	53.27,	5.90
  848000000,	53.27,	5.91
  849000000,	53.27,	6.02
  850000000,	53.28,	5.94
  851000000,	53.28,	5.86
  852000000,	53.28,	6.02
  853000000,	53.29,	5.94
  854000000,	53.29,	5.93
  855000000,	53.30,	5.83
  856000000,	53.30,	5.79
  857000000,	53.31,	5.88
  858000000,	53.32,	5.94
  859000000,	53.33,	5.94
  860000000,	53.34,	5.74
  861000000,	53.35,	5.82
  862000000,	53.36,	5.67
  863000000,	53.38,	5.89
  864000000,	53.39,	5.74
  865000000,	53.40,	5.71
  866000000,	53.42,	5.77
  867000000,	53.43,	5.66
  868000000,	53.45,	5.61
  869000000,	53.46,	5.70
  870000000,	53.48,	5.58
  871000000,	53.50,	5.61
  872000000,	53.52,	5.62
  873000000,	53.53,	5.57
  874000000,	53.55,	5.43
  875000000,	53.57,	5.54
  876000000,	53.59,	5.52
  877000000,	53.61,	5.57
  878000000,	53.63,	5.51
  879000000,	53.64,	5.53
  880000000,	53.66,	5.43
  881000000,	53.68,	5.33
  882000000,	53.70,	5.49
  883000000,	53.72,	5.46
  884000000,	53.74,	5.33
  885000000,	53.75,	5.45
  886000000,	53.77,	5.30
  887000000,	53.79,	5.52
  888000000,	53.81,	5.40
  889000000,	53.82,	5.51
  890000000,	53.84,	5.45
  891000000,	53.85,	5.51
  892000000,	53.87,	5.25
  893000000,	53.88,	5.39
  894000000,	53.89,	5.49
  895000000,	53.90,	5.44
  896000000,	53.91,	5.62
  897000000,	53.92,	5.49
  898000000,	53.93,	5.50
  899000000,	53.93,	5.50
  900000000,	53.94,	5.58
  901000000,	53.94,	5.68
  902000000,	53.95,	5.64
  903000000,	53.95,	5.66
  904000000,	53.95,	5.74
  905000000,	53.95,	5.79
  906000000,	53.94,	6.00
  907000000,	53.94,	5.88
  908000000,	53.94,	6.00
  909000000,	53.93,	6.03
  910000000,	53.93,	5.96
  911000000,	53.92,	6.03
  912000000,	53.92,	6.05
  913000000,	53.91,	5.94
  914000000,	53.91,	5.96
  915000000,	53.90,	6.04
  916000000,	53.90,	6.01
  917000000,	53.90,	6.10
  918000000,	53.89,	6.06
  919000000,	53.89,	6.02
  920000000,	53.88,	6.15
  921000000,	53.87,	6.05
  922000000,	53.87,	6.12
  923000000,	53.86,	6.11
  924000000,	53.85,	6.16
  925000000,	53.84,	6.25
  926000000,	53.83,	6.27
  927000000,	53.82,	6.16
  928000000,	53.81,	6.24
  929000000,	53.80,	6.23
  930000000,	53.79,	6.15
  931000000,	53.77,	6.13
  932000000,	53.77,	6.23
  933000000,	53.76,	6.32
  934000000,	53.75,	6.29
  935000000,	53.74,	6.23
  936000000,	53.73,	6.23
  937000000,	53.72,	6.25
  938000000,	53.72,	6.28
  939000000,	53.71,	6.31
  940000000,	53.71,	6.42
  941000000,	53.70,	6.39
  942000000,	53.70,	6.43
  943000000,	53.70,	6.44
  944000000,	53.70,	6.55
  945000000,	53.70,	6.48
  946000000,	53.70,	6.35
  947000000,	53.70,	6.51
  948000000,	53.70,	6.58
  949000000,	53.70,	6.47
  950000000,	53.71,	6.60
  951000000,	53.71,	6.52
  952000000,	53.72,	6.56
  953000000,	53.73,	6.58
  954000000,	53.73,	6.60
  955000000,	53.75,	6.60
  956000000,	53.76,	6.53
  957000000,	53.77,	6.62
  958000000,	53.78,	6.68
  959000000,	53.80,	6.56
  960000000,	53.81,	6.52
  961000000,	53.82,	6.67
  962000000,	53.84,	6.63
  963000000,	53.86,	6.58
  964000000,	53.88,	6.65
  965000000,	53.90,	6.58
  966000000,	53.92,	6.62
  967000000,	53.94,	6.60
  968000000,	53.96,	6.59
  969000000,	53.98,	6.60
  970000000,	54.00,	6.55
  971000000,	54.02,	6.59
  972000000,	54.04,	6.57
  973000000,	54.07,	6.50
  974000000,	54.09,	6.38
  975000000,	54.11,	6.51
  976000000,	54.13,	6.57
  977000000,	54.16,	6.47
  978000000,	54.18,	6.53
  979000000,	54.20,	6.47
  980000000,	54.22,	6.52
  981000000,	54.24,	6.57
  982000000,	54.26,	6.59
  983000000,	54.28,	6.62
  984000000,	54.29,	6.53
  985000000,	54.31,	6.46
  986000000,	54.33,	6.41
  987000000,	54.35,	6.39
  988000000,	54.36,	6.47
  989000000,	54.37,	6.49
  990000000,	54.39,	6.43
  991000000,	54.40,	6.51
  992000000,	54.41,	6.49
  993000000,	54.42,	6.52
  994000000,	54.43,	6.53
  995000000,	54.44,	6.52
  996000000,	54.44,	6.52
  997000000,	54.45,	6.50
  998000000,	54.45,	6.53
  999000000,	54.46,	6.64
 1000000000,	54.46,	6.56
 1001000000,	54.46,	6.53
 1002000000,	54.46,	6.51
 1003000000,	54.46,	6.56
 1004000000,	54.46,	6.47
 1005000000,	54.46,	6.56
 1006000000,	54.45,	6.52
 1007000000,	54.45,	6.52
 1008000000,	54.45,	6.55
 1009000000,	54.44,	6.75
 1010000000,	54.44,	6.71
 1011000000,	54.43,	6.76
 1012000000,	54.43,	6.72
 1013000000,	54.43,	6.68
 1014000000,	54.42,	6.73
 1015000000,	54.42,	6.66
